model,fold,epoch,train_loss,train_balanced_accuracy,val_loss,val_balanced_accuracy
cnn,1,1,0.3300709699879783,0.8721534071696478,1.2128336764529677,0.6545639611242448
cnn,1,2,0.04156463924441631,0.9885790560342178,1.841068285243476,0.6350341476228002
cnn,1,3,0.026820444275422902,0.991411268045924,2.0720436791067613,0.5727804045179932
cnn,1,4,0.020685680179681643,0.9938081537996805,1.9821862591437394,0.6645061728395062
cnn,1,5,0.03069297964129662,0.9888229704569205,2.852791016956497,0.5219135802469136
cnn,1,6,0.016076902295336443,0.993864100092034,3.2203954730247766,0.5572563698450224
cnn,1,7,0.014447195141719719,0.9950160754213854,2.7606298598128727,0.5972222222222222
cnn,1,8,0.008580793136804791,0.9968468718433412,3.24307528536712,0.7401234567901235
cnn,1,9,0.010994749783157901,0.996545332776091,2.838286490951706,0.6675203572366692
cnn,1,10,0.006278635809486127,0.9983193437295966,4.044283126188127,0.6929012345679012
cnn,1,11,0.012034208328682431,0.9948448798399371,3.2208921793050704,0.6405897031783557
cnn,1,12,0.005924672268365118,0.9974327578408922,3.333239955327693,0.6538678749671657
cnn,1,13,0.015169107591744729,0.9950164950094339,2.9473778046171097,0.654320987654321
cnn,1,14,0.006064242361404016,0.9983767585801196,3.4277083879344845,0.6875032834252693
cnn,1,15,0.0018942533818397547,0.9995281045273984,3.6683537814662808,0.6611111111111111
cnn,1,16,0.001267628631255722,1.0,3.9030885637230845,0.6555555555555556
cnn,1,17,0.0007581599101349427,1.0,4.212764611741049,0.6623456790123456
cnn,1,18,0.02219830986060804,0.9931844398233327,3.9640380332361795,0.7197596532702916
cnn,1,19,0.008459946213011691,0.9976970983114183,3.437295055577766,0.6548003677436302
cnn,1,20,0.0022024698739236794,0.999735659529474,4.177614920611859,0.6842592592592593
cnn,1,21,0.002923925973965909,0.9992637640568723,4.432811418217947,0.5293209876543209
cnn,1,22,0.013104562018397277,0.9964117553794153,4.537906189787992,0.5796296296296296
cnn,1,23,0.012599734612639052,0.9953361523902409,3.802470373786384,0.58179012345679
cnn,1,24,0.0052412114197533475,0.9985841037881711,4.095531077411031,0.5987654320987654
cnn,1,25,0.0034578590125808072,0.9983199731116693,3.9299714978168168,0.5861111111111111
cnn,1,26,0.0014071654792139955,0.9997924449979244,3.9539783148124625,0.6358024691358025
cnn,1,27,0.008118470408014444,0.996961072162315,3.370808800854962,0.6050958760178619
cnn,1,28,0.005242288807110089,0.9987914489962223,4.3912814744186,0.6327160493827161
cnn,2,1,0.2448237384741123,0.9180585588820445,3.8157703443223405,0.4935185185185185
cnn,2,2,0.036192546256531316,0.9890529728939317,5.345646334356732,0.22037037037037033
cnn,2,3,0.02635866051333813,0.9915600517414127,7.139223953179532,0.2796296296296296
cnn,2,4,0.01891997340202439,0.9948990873593453,6.094414112601145,0.38240740740740736
cnn,2,5,0.021819866084395192,0.993048704065663,6.460083339170174,0.23518518518518516
cnn,2,6,0.020658792154818702,0.9938710365732567,5.297847566229326,0.26481481481481484
cnn,2,7,0.016257101145080156,0.9966813912501372,5.676580166154437,0.3768518518518518
cnn,2,8,0.019044335308773534,0.9939175107657232,5.419165844691021,0.3092592592592593
cnn,2,9,0.008938830101956577,0.9968011269943787,6.1857979476796805,0.45
cnn,2,10,0.009448936547498586,0.9976049510111689,5.787183082103729,0.32129629629629625
cnn,2,11,0.010800086163082876,0.9968896332653389,5.380749996144463,0.3490740740740741
cnn,2,12,0.00301832092521251,0.9987916729003725,5.543690034581555,0.4037037037037037
cnn,2,13,0.008046428231010885,0.999020341783644,6.569206542963231,0.3796296296296296
cnn,2,14,0.01993873508175826,0.9936550886724632,6.360119897458288,0.30462962962962964
cnn,2,15,0.008560886581723865,0.9972706127604866,5.947430483720921,0.35555555555555557
cnn,2,16,0.0016339172698420813,1.0,6.984077715176951,0.3537037037037037
cnn,2,17,0.0025948331939546804,0.9990560133708986,6.647182219781745,0.32037037037037036
cnn,2,18,0.002274890052859309,0.9994400895856663,7.448230547375149,0.26851851851851855
cnn,2,19,0.005531039082349637,0.9982737945645325,7.596879372773347,0.19444444444444445
cnn,2,20,0.01570432379563639,0.994732877422637,6.332157250542056,0.34074074074074073
cnn,2,21,0.0022171769559673313,0.9989114086446143,7.629542312798677,0.29351851851851857
cnn,3,1,0.30430417373203317,0.8899907681437637,1.39371724115645,0.6062096029547553
cnn,3,2,0.0564518871735065,0.9841714617600182,2.27442644434306,0.5507617728531856
cnn,3,3,0.02896810738244452,0.9905303528341783,1.5587757667360758,0.6273699599876885
cnn,3,4,0.03893875035842379,0.9859902764141616,1.5609850771764755,0.6244998461064942
cnn,3,5,0.022222819382127803,0.9930398260461333,0.9975452467961909,0.7125243664717349
cnn,3,6,0.02387785757936609,0.9920788861146052,1.4337671736611508,0.6680183646250129
cnn,3,7,0.016672014877258334,0.9936415587449363,1.996526740163336,0.6116446085975172
cnn,3,8,0.014973961204276957,0.9943572960788147,3.960339038142595,0.5860598132758797
cnn,3,9,0.01596727446544369,0.9941789945417012,2.040732130443718,0.5988047604391095
cnn,3,10,0.01303590596866203,0.9944294784294208,2.5139712521016273,0.5199317738791422
cnn,3,11,0.006749717027224295,0.9984179797027682,2.0922741191146286,0.6855109264389042
cnn,3,12,0.005513846272431413,0.9978580692884345,3.012074788906658,0.5636067507951165
cnn,3,13,0.020506917545921727,0.993894646791154,2.7942689329182437,0.5627295578126602
cnn,3,14,0.013542853731520994,0.9954352946230128,4.015837622312338,0.5405996716938545
cnn,3,15,0.00940767464050553,0.9971423319545561,2.81700188851548,0.5876680004103827
cnn,3,16,0.005609013858814321,0.9980336936939763,2.940244120064466,0.5738432338155329
cnn,3,17,0.013270228522630462,0.995114405878066,2.2456302463602977,0.6235303170206218
cnn,3,18,0.007554296049476342,0.997095228380017,2.3435781422890574,0.5819970247255566
cnn,3,19,0.008477191047383642,0.9972510552995617,3.823093772319617,0.5340976710782805
cnn,3,20,0.008339597883423266,0.9964265946206776,4.154960798464605,0.4525007694675285
cnn,3,21,0.008217840941282563,0.9970644184947837,3.9381164147220913,0.543385144146917
cnn,3,22,0.005925366449824091,0.9982313428979904,3.7330121571019452,0.5275264183851441
cnn,3,23,0.0031333661843746087,0.9989109890565658,4.02821339134353,0.5127064737868062
cnn,3,24,0.005230367042314846,0.9983818885274652,2.0176036680804064,0.6301272186313738
cnn,3,25,0.0010732170085702819,0.9997354497354497,2.544779290800555,0.608887349953832
cnn,4,1,0.30013732369989155,0.8890776876435512,2.0819852018790064,0.509500805152979
cnn,4,2,0.056449479210333754,0.9812587270257572,2.744682921098869,0.45780998389694044
cnn,4,3,0.03769070093134919,0.988897867382509,2.935621995426413,0.484621578099839
cnn,4,4,0.03555203942590966,0.9871374020841827,2.5384407079661444,0.568317230273752
cnn,4,5,0.017357856918645737,0.9930484971248775,3.5567209623787184,0.5026570048309179
cnn,4,6,0.017000446306785585,0.9947606361835145,4.268776736104007,0.468317230273752
cnn,4,7,0.012218541920894775,0.9952211592249993,4.307362416670961,0.4963365539452496
cnn,4,8,0.0137502918116717,0.9960344526192824,3.639671620845696,0.505756843800322
cnn,4,9,0.01340303281870617,0.9949457185451654,4.687324475421497,0.5291062801932367
cnn,4,10,0.03631156565780447,0.987086198232292,3.7284516707349105,0.5623590982286635
cnn,4,11,0.018615539913074686,0.9946021199657643,3.3381941859603477,0.5101851851851852
cnn,4,12,0.0049469267599656285,0.9984666491418182,4.508740619582789,0.49657809983896944
cnn,4,13,0.008268698878348983,0.9979379682007661,4.538461362496171,0.5036231884057971
cnn,4,14,0.0286268453933959,0.9899083911380075,3.55280457785752,0.6064814814814814
cnn,4,15,0.006300668549878398,0.998123050562417,4.462882285150759,0.5418679549114331
cnn,4,16,0.0023061993181937184,0.9992596705533963,5.023639461572723,0.5188808373590982
cnn,4,17,0.005788856103152704,0.9975678034774642,4.09346019874286,0.5375201288244766
cnn,4,18,0.011514603035860861,0.995701513926362,4.911404938199515,0.4938808373590982
cnn,4,19,0.008117669775800515,0.9966269257346166,4.237091962678708,0.5132850241545893
cnn,4,20,0.003754794975632719,0.9987309896123442,5.210520023002476,0.4597020933977456
cnn,4,21,0.005089388775751593,0.9986517315034691,5.5992553205154945,0.4977858293075685
cnn,4,22,0.015158254793277592,0.9942802814821518,5.747415426881057,0.47644927536231885
cnn,4,23,0.0058274385733896525,0.9976050295078457,5.175933566346307,0.5022544283413849
cnn,4,24,0.011303996094794946,0.9948041563750919,5.049755158908624,0.47797906602254425
cnn,4,25,0.012702346098502367,0.9949084925147839,5.279321571610076,0.489170692431562
cnn,4,26,0.011860407076486668,0.9956067898828941,3.9657609353231598,0.5202898550724638
cnn,4,27,0.005915134304055195,0.9976470615863393,4.2593609689603396,0.5169484702093398
cnn,4,28,0.0011238878932475088,1.0,4.670617892994611,0.509098228663446
cnn,4,29,0.008592877574114238,0.9972566248803325,4.405412017571444,0.5135265700483091
cnn,4,30,0.013220072575089803,0.9957184679740386,4.140689491483779,0.5462157809983897
cnn,4,31,0.00405425654559202,0.9984246170633245,4.37251471001245,0.542109500805153
cnn,4,32,0.007229398208169011,0.9972614309284445,3.8874870337837986,0.5541062801932367
cnn,4,33,0.004842173338017976,0.9982395347016736,5.191312575757754,0.49480676328502415
cnn,4,34,0.005203616545997228,0.9987947817866264,5.381015014276817,0.5017310789049919
cnn,5,1,0.28778709836166216,0.8989032370462176,1.834601067837646,0.5150715410419663
cnn,5,2,0.050838858463491,0.9835200390349063,3.8884327346862158,0.4906585883480523
cnn,5,3,0.03949539296639462,0.9863722877363029,2.571762115370015,0.5432669268159102
cnn,5,4,0.019313158815795626,0.9926814758971251,3.516232827064332,0.4040220442253714
cnn,5,5,0.012564877686909986,0.9949789716085554,2.6010088611695994,0.43794413637297186
cnn,5,6,0.010040082105250028,0.9966325223537006,3.0413185981217024,0.4366639282535771
cnn,5,7,0.010679719690610741,0.997478972341684,3.9205875323876556,0.41857670979667283
cnn,5,8,0.019613858423663595,0.991758667207677,3.296634808781719,0.42203053330594925
cnn,5,9,0.010657087299235476,0.9970636037020165,3.837781226027294,0.38867323885808175
cnn,5,10,0.009173087362217268,0.9962723505719066,4.281733629044629,0.407708632847265
cnn,5,11,0.006668922643398724,0.9974632596330358,3.6473448610121384,0.41635174916136103
cnn,5,12,0.00925578127250817,0.996926963867108,6.014480292703502,0.42462517970835906
cnn,5,13,0.020859804631726108,0.9931204810589668,4.038646216364732,0.42492298213185453
cnn,5,14,0.008605765663297562,0.9969532099862688,5.38105720098024,0.3707195180392962
cnn,5,15,0.00742082244188943,0.9970951640377163,5.610559801159483,0.3440097213664681
cnn,5,16,0.003191252921304247,0.998498936716815,5.571031800865069,0.33113233381255563
cnn,5,17,0.005273540990634097,0.9978049741907915,4.437361108673928,0.38864927774354757
cnn,5,18,0.004415002342432638,0.9982124190169334,5.99790596068523,0.35656534538235096
cnn,5,19,0.01698340934509125,0.9932098478495271,3.5421189873837986,0.42866776203190254
cnn,5,20,0.0022233767978091404,0.9992981136604507,4.459224354570833,0.34165126309303756
cnn,5,21,0.0030270693848436806,0.998859108498609,4.716475255698866,0.3669610460738002
cnn,5,22,0.021532829073401916,0.9948870351168462,3.997401429813657,0.44612856849455734
cnn,5,23,0.010504044591275656,0.9957150278807915,4.289159838907673,0.4287191072773328
