model,fold,epoch,train_loss,train_balanced_accuracy,val_loss,val_balanced_accuracy
cnn,1,1,0.24737026017063704,0.9120665006522666,3.1577281298859297,0.42384699196159453
cnn,1,2,0.045118261153738085,0.9830941106339436,3.2506510558133166,0.45615087404982657
cnn,1,3,0.03967855942871374,0.9856451507352809,2.452793450200327,0.5704114289450087
cnn,1,4,0.024776230117855354,0.9910432053830464,3.5528552356955676,0.5518268686783782
cnn,1,5,0.02192449441182618,0.9920755552015094,3.1396935227176535,0.4973304261043016
cnn,1,6,0.01699833680643515,0.993153779376521,4.007095754961312,0.4333752113172939
cnn,1,7,0.014529759997616892,0.994453958129689,4.1030521332195296,0.5157092970093586
cnn,1,8,0.00837350013598319,0.9973044984079236,2.808616111439889,0.5350141048539078
cnn,1,9,0.017069372235504816,0.9947746000291668,3.7804125419866947,0.5280417817694466
cnn,1,10,0.018473078538059223,0.9928402064444306,2.812028938143635,0.552566561808706
cnn,1,11,0.006531277770502642,0.9977625805065601,3.8950794214869644,0.4799290576554902
cnn,1,12,0.003967392528517312,0.9986082203966725,4.25264309225634,0.4879417045775641
cnn,1,13,0.004509908325183996,0.998625818883672,4.178829477266228,0.49504995269012525
cnn,1,14,0.003015198751785274,0.9988266667467972,4.9606918163990725,0.4669421600105519
cnn,1,15,0.008499913765661823,0.9974630803296627,4.416958556599916,0.45668757834500284
cnn,1,16,0.012686493113123549,0.9953806518465741,3.5958914334887915,0.5663807544891957
cnn,1,17,0.0068027574127812,0.9980338874972645,6.289066009712709,0.4020603122266708
cnn,1,18,0.009503691962177423,0.9964835259721978,2.479564274948884,0.577718555629831
cnn,1,19,0.005417184136762771,0.9977766532617531,4.64036141935177,0.49941077421052776
cnn,1,20,0.011024814021966915,0.996441212355005,4.246663948490811,0.5077836836924945
cnn,1,21,0.011065560970690478,0.9963355387496522,4.275378869042741,0.5078977533999098
cnn,1,22,0.005149067570593429,0.9986751537924454,4.236758425094931,0.5209125417997876
cnn,1,23,0.0012587820249669115,0.9997004998231027,4.973813945051183,0.48866938410992633
cnn,1,24,0.00866317234056227,0.9971635801527653,5.266875977385012,0.49837011556050376
cnn,1,25,0.008893165228586533,0.9967689057180954,5.128399606997846,0.4459623165106837
cnn,1,26,0.002852786839849404,0.9991014994693078,5.618154577675826,0.4602169945669638
cnn,1,27,0.0048903318401652286,0.9993728064600123,6.284572290360927,0.41981012788160044
cnn,1,28,0.007006720002962725,0.9977907260169464,4.300810452608447,0.5290241742490664
cnn,1,29,0.00341102062686845,0.9987702803744112,5.144332945419927,0.4682918372998472
cnn,1,30,0.0005380224282742591,1.0,5.064367031775206,0.5073316869373554
cnn,1,31,0.00806895338239953,0.9972164407933449,3.98143987426265,0.5355140987303649
cnn,1,32,0.008193999147400833,0.9980092200428777,4.284117111090346,0.5544389517587299
cnn,1,33,0.0054573518399383125,0.9985976256974789,4.486189108824183,0.5679085740083892
cnn,1,34,0.003531429383438897,0.9989781797011491,4.515673929470922,0.5021169483892836
cnn,1,35,0.006885011908572125,0.9968112193352882,4.881705568744538,0.48020344523733316
cnn,1,36,0.01178297712221814,0.9961417598539143,4.665645178414146,0.4697423239629031
cnn,1,37,0.001780043560361614,0.9994009996462051,4.580826598313856,0.5479640101328332
cnn,1,38,0.007720719626809697,0.9977378653763666,4.923922987104956,0.4571111512886005
cnn,2,1,0.23577878895916582,0.9158480510270547,2.374434589499003,0.353669536695367
cnn,2,2,0.03754413266397398,0.9882643919306674,2.4585977180211294,0.3867454785658968
cnn,2,3,0.03417624251559358,0.9899534689993938,3.2302984459258712,0.34437383262721516
cnn,2,4,0.026574177938584267,0.9916145985675001,3.064743621339241,0.3519361304724158
cnn,2,5,0.014374595950282607,0.9955712474419833,5.475592336554222,0.3860120267869345
cnn,2,6,0.014409543606328127,0.9948693046778293,3.0388041353524557,0.41211562115621153
cnn,2,7,0.007658465280065243,0.9977618445265719,3.135264075039453,0.35586989203225367
cnn,2,8,0.017823473038174362,0.9941277563884122,2.8476402557308758,0.40328458840143955
cnn,2,9,0.007300958328761629,0.9984278869265296,3.8242040039967597,0.4518860188601886
cnn,2,10,0.013023219511758482,0.9949420316964884,3.0871619080131305,0.3708669308915311
cnn,2,11,0.0059516018741915195,0.9970687809162609,2.5645251948201637,0.44810486993758825
cnn,2,12,0.009357844350496325,0.997311588060616,2.9398240284462673,0.38546535465354653
cnn,2,13,0.007603825541049371,0.9973833887890082,4.596407712259828,0.4307184182952941
cnn,2,14,0.010406272764401403,0.9958769761608878,5.676053044023621,0.3436745478565897
cnn,2,15,0.008289323734553579,0.9963002114164906,4.208665650922136,0.3030499749441939
cnn,2,16,0.006324441461415939,0.9979748515897735,3.9691099089880786,0.4379048790487905
cnn,2,17,0.0028160363634240114,0.9990184234370281,3.8252720759545054,0.3718509407316295
cnn,2,18,0.004863598611463948,0.9987424947992771,3.213116502527102,0.46787162316067604
cnn,2,19,0.01034862319623422,0.9966436930801247,3.16980496471157,0.3687645209785431
cnn,2,20,0.006107288471013685,0.9976989229520224,4.806608292952208,0.3428499840553961
cnn,2,21,0.005661977100155277,0.9980396257448566,4.298916474296609,0.31650494282720604
cnn,2,22,0.005283094138635018,0.9982913120430544,5.070044256383195,0.3661199945332787
cnn,2,23,0.0034788424693581958,0.9984278869265296,5.232328817052813,0.38967245228007835
cnn,2,24,0.005171083979110115,0.9982507802275244,4.806584807927648,0.4100086556421119
cnn,2,25,0.0036545932006085244,0.9989941810974751,5.136336348002604,0.3507083959728486
cnn,2,26,0.004361832350186372,0.9986040673352683,3.833932528386391,0.47535419798642436
cnn,2,27,0.0034312945374316297,0.9993339576000423,4.849685763119372,0.4319165413876361
cnn,2,28,0.002790128160842421,0.9987424947992771,4.483615980092617,0.34720741651860965
cnn,2,29,0.0035372635333049147,0.9990561763817577,4.700091133954305,0.4075053528313061
cnn,2,30,0.00265941502391196,0.9991316822712172,4.316575914049821,0.4210491549359938
cnn,2,31,0.009415353762281685,0.9971065338609906,4.186446867602832,0.44019634640790856
cnn,2,32,0.004193798057797525,0.9985304140263424,2.9928540705675366,0.512762516514054
cnn,2,33,0.005288980898020273,0.9980126045345031,5.238304312297986,0.4059427816500387
cnn,2,34,0.003872190495460871,0.9986031410450016,6.385968974885001,0.39947155027105824
cnn,2,35,0.0028225280166070715,0.9989177489177489,5.05250957006466,0.39564484533734223
cnn,2,36,0.003322335370966827,0.9989564281527454,4.251330412558882,0.3323561568949023
cnn,2,37,0.003097856214149021,0.9990561763817577,4.600699556137261,0.384335565577878
cnn,2,38,0.003223428287085262,0.9987415685090104,4.490780933671083,0.3616053938317161
cnn,2,39,0.0008450226067032432,0.9998615725359912,4.67252457411803,0.34177486219306635
cnn,2,40,0.004808420509261358,0.9987452736700774,5.52696542792511,0.35358525807480295
cnn,2,41,0.01096468104879854,0.9964414177512997,4.4916474004524005,0.32429274292742927
cnn,2,42,0.0022255834114150376,0.9990580289622913,4.688775167304699,0.3530750307503075
cnn,2,43,0.003629254716124073,0.9994733113543179,4.873359224044113,0.365527766388775
cnn,2,44,0.00042778325096846253,1.0,5.162438155546473,0.33265910436882146
cnn,2,45,8.933090205438166e-05,1.0,5.308933247722396,0.3328754954216209
cnn,2,46,0.0035595011343387255,0.9987084470156145,5.50688542111052,0.3279691130244636
cnn,2,47,0.009213351410367086,0.9974868421790878,4.498582151152908,0.39485672634504126
cnn,2,48,0.006464105771079776,0.9977627708168387,4.892700198779854,0.3917065281763929
cnn,2,49,0.0008523880580415648,0.9997231450719823,5.233720794628388,0.36492187144093663
cnn,2,50,0.006375247213185129,0.998187858652975,4.534573072434167,0.3807024736914036
cnn,3,1,0.24466302575178675,0.9112673796353531,2.213405845643984,0.586414932687616
cnn,3,2,0.026570015756434945,0.9919350006533119,2.4971078815348062,0.6068850318132811
cnn,3,3,0.030924582580877373,0.9903998154334855,2.794896981569492,0.6142097683003982
cnn,3,4,0.011624710324184955,0.996024621129283,4.100698358756585,0.5747209694319165
cnn,3,5,0.014492731487763129,0.9950424567859947,3.3706857426664447,0.6714874815810239
cnn,3,6,0.012821876680203617,0.9958101426623506,4.258211470765759,0.5911636523772645
cnn,3,7,0.012554432508098675,0.9965772689400506,2.740692409804017,0.6669275896660377
cnn,3,8,0.012549672824216313,0.9957341059474379,2.734614486574125,0.7279210144151
cnn,3,9,0.00842542727320609,0.9972308064775949,3.4029719020606675,0.6625542125989337
cnn,3,10,0.005607887857221022,0.9983650442507086,3.6923583414138177,0.654189599362713
cnn,3,11,0.010551967865073503,0.9965152369687141,3.003534911857758,0.6683152646736695
cnn,3,12,0.00870458935489446,0.9975216947252106,3.0454979029575737,0.5348309318074068
cnn,3,13,0.009810469571938174,0.9967158039585131,3.6300962257894693,0.6601005269311953
cnn,3,14,0.008286556256280164,0.9959344864043516,3.4468212928841107,0.6664887334256234
cnn,3,15,0.004836116478967885,0.9986035363315212,2.703572151339733,0.6987317595595884
cnn,3,16,0.008846563587906427,0.9968161340866338,3.206001221463043,0.6855492982239694
cnn,3,17,0.002786350090987399,0.9993708491421066,4.368970384297545,0.594273328392965
cnn,3,18,0.005021777500702491,0.9985273130837232,3.9842125692901047,0.642546136809727
cnn,3,19,0.009973317812348786,0.9967778359298496,3.5675514647234206,0.6276516341016843
cnn,3,20,0.004888786308112647,0.9983269326268096,4.085504946158157,0.5920828083989288
cnn,3,21,0.0029911018234543008,0.998917971860804,3.85383818493884,0.6571459196864277
cnn,3,22,0.004651534741260524,0.9990561338134959,4.9549361348173555,0.6191815178992702
cnn,3,23,0.009959856231658312,0.9971305696159166,3.7241916884660196,0.5884933135610518
cnn,3,24,0.006555961492823798,0.9976597634114599,3.5162549058557473,0.6413382486269835
cnn,3,25,0.003091729561014731,0.9991323570612939,4.124239102596771,0.6179953485313159
cnn,3,26,0.004533988899315327,0.9982889142693532,4.315868035445263,0.623538385640875
cnn,3,27,0.0020436475596223307,0.9995471227186975,4.115031254831644,0.6142058125471198
cnn,3,28,0.0028908797561019496,0.9993708491421066,4.305711968858949,0.6305773892060786
cnn,4,1,0.2530062903829029,0.9019793655835162,1.4844367923739332,0.6209876543209877
cnn,4,2,0.05006265462825781,0.9794310360543644,2.218270304438882,0.5425925925925926
cnn,4,3,0.03961902872654678,0.9871567402367143,1.4327260554931591,0.6938271604938272
cnn,4,4,0.02042019964764101,0.9924590299636776,1.763991006519676,0.6092592592592593
cnn,4,5,0.020044917488909957,0.9932156209987234,2.175849002411296,0.6024691358024691
cnn,4,6,0.018478412262142266,0.9933147834278087,2.0264784977932564,0.6561728395061728
cnn,4,7,0.016829098076037743,0.9933986678988972,2.074336434894201,0.6709876543209877
cnn,4,8,0.01510886117043788,0.9956220702502594,1.815658367696804,0.638888888888889
cnn,4,9,0.019837319676101518,0.9934181821188828,1.2765952469054038,0.7382716049382717
cnn,4,10,0.008016790099556127,0.9966966406354195,2.3441042119703477,0.5932098765432099
cnn,4,11,0.009229360994436431,0.9974287717855104,1.7971716776214952,0.6376543209876543
cnn,4,12,0.012306784467815806,0.9965520852954324,3.691301329258508,0.5296296296296296
cnn,4,13,0.012494968408762432,0.9964334086463614,1.8052311782468557,0.6524691358024691
cnn,4,14,0.006363896662742488,0.9981545384646703,3.1405360703259295,0.6864197530864198
cnn,4,15,0.013707853319107831,0.9954291320201468,2.117389379190095,0.587037037037037
cnn,4,16,0.00650270252204845,0.9980302067476492,1.6169048426235235,0.7123456790123458
cnn,4,17,0.006525895618028587,0.99780573475867,2.0404236791545145,0.6888888888888888
cnn,4,18,0.006981214274750295,0.9980504303706154,2.150599937254839,0.6456790123456789
cnn,4,19,0.0022289113095825884,0.999502673131916,2.214016257317344,0.6728395061728394
cnn,4,20,0.006483322375570737,0.9975232569895186,1.7380476437207364,0.7240740740740742
cnn,4,21,0.013819499485968658,0.9955478086692175,2.2763473606224363,0.6074074074074075
cnn,4,22,0.00569803512933822,0.9976572115965863,2.27217926814978,0.6469135802469136
cnn,4,23,0.008229130103160428,0.997278561377573,1.891008551903596,0.6771604938271606
cnn,4,24,0.008641547565693472,0.9975620169895972,2.7684244686325075,0.5117283950617284
cnn,4,25,0.007049010466287233,0.9974376852725763,2.454742011417116,0.6506172839506174
cnn,4,26,0.0028682013668191665,0.9993186483888691,2.348592299865669,0.6753086419753087
cnn,4,27,0.009671164791862466,0.9962089366573822,1.4915862396292174,0.7549382716049383
cnn,4,28,0.005900317644468509,0.9977516968005943,1.5646228959903228,0.7672839506172839
cnn,4,29,0.002323780605464881,0.9990845535098432,1.372649796791922,0.795679012345679
cnn,4,30,0.004599652174679619,0.998009983124683,2.1321352911635336,0.6919753086419753
cnn,4,31,0.006231175063826279,0.9981343148417041,2.374008335148055,0.6253086419753087
cnn,4,32,0.004645129739062354,0.9985129650607173,1.9617253397129106,0.695679012345679
cnn,4,33,0.008024702454085273,0.9973229764456019,1.7055218291763383,0.7518518518518519
cnn,4,34,0.0052374957950860335,0.9978259583816361,1.8860336550566104,0.7191358024691358
cnn,4,35,0.004346784285413095,0.9989158067247933,2.092857734852033,0.7030864197530864
cnn,4,36,0.006215238372227851,0.9981246919516574,2.085528324323138,0.7444444444444445
cnn,4,37,0.0032484289201771465,0.9990699849548271,1.9442013322627167,0.7382716049382716
cnn,4,38,0.002550297107624264,0.9990699849548271,1.8731093537261445,0.6716049382716051
cnn,4,39,0.0005492852180017555,0.999875668282979,1.6435323103619892,0.7592592592592592
cnn,4,40,0.007834149132045613,0.9976273650835733,2.150623063280222,0.6506172839506172
cnn,4,41,0.007526574324815041,0.9978106804236392,1.5310914081273512,0.7574074074074074
cnn,4,42,0.00375978698489786,0.9984532720346914,1.7317968944685271,0.7462962962962963
cnn,4,43,0.006449354481739687,0.9979705137216235,1.7831707860207158,0.6993827160493827
cnn,4,44,0.003136640613744142,0.9987914750077721,1.7196441069857018,0.7320987654320987
cnn,4,45,0.0009465962659239576,0.999875668282979,2.1230425588185216,0.7320987654320987
cnn,4,46,0.00037352765154697367,1.0,2.00060934063471,0.7246913580246913
cnn,4,47,0.00223663805441217,0.9993630634568981,2.933821291338342,0.6604938271604938
cnn,4,48,0.011175677820576173,0.9968160266874712,2.3033790455995273,0.6944444444444445
cnn,4,49,0.0017010277367182376,0.9989900683058351,2.403176446664104,0.6679012345679013
cnn,5,1,0.2456035092761068,0.9109381754493961,4.929196261077326,0.4518518518518519
cnn,5,2,0.041232677394423406,0.9867279623951473,6.019358898390855,0.39074074074074067
cnn,5,3,0.026158278260425636,0.9911109735231168,6.576840243963675,0.3462962962962963
cnn,5,4,0.019177944928986144,0.9920463449438789,5.778272604476588,0.391358024691358
cnn,5,5,0.012752178850728952,0.9949626360654165,8.819308288548324,0.40987654320987654
cnn,5,6,0.016487529094015324,0.9952144459003156,5.775915489294432,0.3209876543209877
cnn,5,7,0.011049446650261968,0.9966250299921984,6.145500430849517,0.34753086419753093
cnn,5,8,0.00461027208941757,0.9989254296148399,6.512852994685383,0.35432098765432096
cnn,5,9,0.011729575862679583,0.9957885430165346,6.537392689091814,0.31543209876543205
cnn,5,10,0.012070797271851766,0.9963451522000248,7.044586070672845,0.3314814814814815
cnn,5,11,0.0050567679575007,0.9985492880629198,7.42484559427749,0.3808641975308642
cnn,5,12,0.0051515433108752125,0.9982487759371601,6.393618104206096,0.3555555555555556
cnn,5,13,0.01378884860695479,0.9960566999621882,8.901737855075853,0.3561728395061728
cnn,5,14,0.00784991296541662,0.9970424402112904,7.965214774270538,0.271604938271605
cnn,5,15,0.0028409333293021736,0.9992465760741854,8.289579645369296,0.32037037037037036
cnn,5,16,0.002684864223721851,0.9990259805974179,7.247543042100035,0.3339506172839506
cnn,5,17,0.0054905662326143675,0.998044527571147,8.594117701964795,0.30864197530864196
cnn,5,18,0.013575174342754133,0.9947630139636378,7.742868690358261,0.24135802469135803
cnn,5,19,0.004866111214830864,0.9985730687973627,8.662136365803951,0.2932098765432099
cnn,5,20,0.010154791154941308,0.997487918387657,7.4459409552601405,0.34074074074074073
cnn,5,21,0.0034815233370840567,0.9990466149310038,6.944524011790736,0.3864197530864198
