model,fold,epoch,train_loss,train_balanced_accuracy,val_loss,val_balanced_accuracy
cnn,1,1,0.18939003768071572,0.9296596401001321,3.3706032404787387,0.3274587823963188
cnn,1,2,0.042788208930306285,0.984408176467737,2.7921134751311754,0.4561944070914419
cnn,1,3,0.023259737874038258,0.9921165549738826,3.437469728537286,0.4209602617668546
cnn,1,4,0.025960758497975443,0.9909941556461107,3.5725118218613496,0.41004898472788315
cnn,1,5,0.013876301250318022,0.9953065813068841,3.0568909381237646,0.4698359240609355
cnn,1,6,0.015663097898336722,0.9946770297864284,4.164709756380467,0.41243672702208745
cnn,1,7,0.009708708043573459,0.9964937282874752,3.890980228817017,0.4503673152692262
cnn,1,8,0.011006136845632378,0.9957940068738336,3.9115297263356053,0.49422501497343374
cnn,1,9,0.013482347010194058,0.9957229979074681,3.5725481812192097,0.49823031665151446
cnn,1,10,0.005023908550111794,0.9981332796944834,4.426521051403527,0.457209395806703
cnn,1,11,0.0074578079798978065,0.9971381528597468,5.2137870961307105,0.48663281509199535
cnn,1,12,0.007606780598364587,0.9976168194849593,3.3434867410510574,0.5138660582377396
cnn,1,13,0.006160717560176205,0.9977297831837696,4.438297913281225,0.4435319535870088
cnn,1,14,0.010090293175593498,0.9970813250754856,3.071593651890833,0.5084360677408001
cnn,1,15,0.011742704872105644,0.9972762648685861,2.621388007761651,0.5134507029596591
cnn,1,16,0.011648732517759556,0.9959961746657798,3.4891664173646615,0.4882306922423223
cnn,1,17,0.003180467724093056,0.9988168865554211,4.2365035277081535,0.47443814880696444
cnn,1,18,0.00706727693749225,0.9978980437239501,4.234032709002097,0.5022573210106013
cnn,1,19,0.0061551128866899636,0.9981321658057167,4.033449636829875,0.41122337514016233
cnn,1,20,0.0017177131454942844,0.9996026175993654,3.607125842420926,0.4993319017342002
cnn,1,21,0.0033879691514651544,0.9989629184328184,4.075653691570775,0.465238850566438
cnn,1,22,0.006952295799817436,0.997471626680741,4.656719278577832,0.4513907473799828
cnn,1,23,0.0015676539919631464,0.9997047417823719,3.4643056155591805,0.4899901111329589
cnn,1,24,0.006122969923829122,0.9984625727759985,3.3510241911858993,0.5034323160951949
cnn,1,25,0.005114231607656526,0.9987387967936767,4.507085114323127,0.4605646798547019
cnn,1,26,0.0028845545331642013,0.9989549985642604,4.578082791494571,0.4606715992357167
cnn,1,27,0.006464691398093844,0.9981131316057669,5.352725927184627,0.3924226782631579
cnn,1,28,0.013775331779355525,0.9957296762751385,3.8579954603014324,0.5037855940895097
cnn,1,29,0.005156556755765152,0.9985485824063008,3.2366016036144436,0.5790278024279061
cnn,1,30,0.0023358110950243583,0.9989099769811028,3.2051617564256842,0.592464319630638
cnn,1,31,0.0016472509914214858,0.99934334720757,4.675785065718445,0.4972020498042711
cnn,1,32,0.001155133782217701,0.9995475955735831,4.819766693826818,0.4893253212155662
cnn,1,33,0.0046062510822943515,0.998645706367995,5.293452287405026,0.4289334321550724
cnn,1,34,0.0035202116378945415,0.9990261351427466,4.030181744958403,0.4812652950127001
cnn,1,35,0.004122467867801939,0.9984745261805689,4.9220060857790235,0.44639037277553245
cnn,1,36,0.00538644892016897,0.998752830772314,5.144686260010527,0.4003141814289319
cnn,1,37,0.002711991811662162,0.9992883251817877,5.147951649659186,0.4102788829736331
cnn,1,38,0.004753816077300663,0.9987007283937773,4.780227935848839,0.3959886251784875
cnn,1,39,0.0026760155192708563,0.9990671231898918,4.311237882316433,0.49719738944168235
cnn,1,40,0.006540998353106481,0.9975345685750815,4.353593001606196,0.47126556368941097
cnn,1,41,0.0023676159087292112,0.9992523373559551,4.925544618001054,0.4811557188075692
cnn,1,42,0.000682964769570868,0.9999309439955804,5.2164755331074995,0.45666200637453197
cnn,1,43,0.004189498752861941,0.9984795264018813,4.814872349912742,0.4102888837570122
cnn,1,44,0.002426869961655487,0.9992192691773681,4.302818715149918,0.4636612002598544
cnn,1,45,0.003029679890389277,0.9992192691773681,3.7788364903506664,0.47828846132831865
cnn,1,46,0.0028433917034526705,0.9993714151648446,3.98255839416694,0.47796743634037003
cnn,1,47,0.0028119485454435643,0.9988499547340082,3.940311153406308,0.545190848919841
cnn,1,48,0.0042015115239501435,0.9985816505848879,3.071955939069426,0.547032518569006
cnn,1,49,0.004633133496134514,0.9987478305510016,4.2070462598364475,0.487952788510227
cnn,1,50,0.005480076577056582,0.9984174235807197,3.5729122429552103,0.46552770585999376
cnn,2,1,0.186054684385323,0.9294626820949091,2.7062851543310176,0.4670717959557529
cnn,2,2,0.047031017179445675,0.9826782317037336,3.572665804777438,0.45995424191894285
cnn,2,3,0.02866923727157812,0.9896952277656972,3.095360248577121,0.48006098467945857
cnn,2,4,0.020365631492518917,0.9926196151860468,3.4316299035830595,0.5489836539139011
cnn,2,5,0.01763668594365486,0.9938147422405074,4.6668964899309655,0.46338688085676044
cnn,2,6,0.014805878167307805,0.9944429125435247,4.523091081108037,0.3994245989807182
cnn,2,7,0.01755080112742666,0.9933589166662188,3.684179061164099,0.4006272653968701
cnn,2,8,0.015008063142825752,0.9953967704433534,3.9888851253469038,0.4547223983653914
cnn,2,9,0.010865845862318589,0.9959288626551038,3.8447212272096154,0.5310055034954634
cnn,2,10,0.011926816202732227,0.9961609408550416,4.599072957723112,0.4233471899293079
cnn,2,11,0.010823801633000002,0.996374876581762,3.828101304578509,0.5601282322271542
cnn,2,12,0.011175898137494537,0.9957678096543704,4.422123006493918,0.5112211027345248
cnn,2,13,0.011310955297360637,0.9964443570873017,3.7845391732636777,0.4491478584904922
cnn,2,14,0.004815886371006155,0.9982289050019499,3.7343402926924862,0.4928290158685424
cnn,2,15,0.010728265213519524,0.9966380537655019,2.6592336488222896,0.6125523536641694
cnn,2,16,0.004198599606381018,0.9986066706712661,4.666282269801603,0.5593743394631155
cnn,2,17,0.011964751601685865,0.9964365823413511,3.819762894575544,0.4919706114907975
cnn,2,18,0.008722775640734863,0.9972230287032394,4.915989103504908,0.47299216358611834
cnn,2,19,0.009825250689761023,0.996833663058459,4.175407950932651,0.4848851546537025
cnn,2,20,0.005822647601242655,0.9985199120196144,4.315947672021556,0.4964468008486187
cnn,2,21,0.0070336773811259965,0.997059198760644,4.918660286039086,0.4375995208905799
cnn,2,22,0.0077685374612889435,0.9972817735604202,5.309411565624365,0.3855734830158842
cnn,2,23,0.00797721501646545,0.9968528538193279,4.618655251576206,0.452505930153362
cnn,2,24,0.004253397060116982,0.9988378845440984,5.059232336520939,0.5228128889828318
cnn,2,25,0.008563017128364565,0.9973693965391773,5.218498949631512,0.4630484902573256
cnn,2,26,0.006504321183562594,0.9978117691968679,6.3429664956952845,0.4120697213806493
cnn,2,27,0.004952459162881823,0.9981181417458874,5.3175820462764865,0.4679785418477027
cnn,2,28,0.0025593967566488246,0.9990585467291181,4.848021901227489,0.3984931930450848
cnn,2,29,0.006751184211841577,0.9975736449051903,4.691384185635749,0.5038915897508162
cnn,2,30,0.006319645283071086,0.9979061186339239,4.900910842512639,0.3836650696352662
cnn,2,31,0.005174456436681432,0.9984013740176015,4.449525218046089,0.514641607365133
cnn,2,32,0.006403243778838102,0.9977770289440979,5.886563504103677,0.4348385745711892
cnn,2,33,0.005465081422756576,0.998196077363937,8.473379537111285,0.3653080156884849
cnn,2,34,0.004940304744235245,0.9979996037438745,4.947130846818644,0.44078477653303266
cnn,2,35,0.005968855431305032,0.9980419347820487,5.7132464231419835,0.429986025975246
cnn,3,1,0.17498960400530683,0.9363959527624397,3.151662639505351,0.4631120269517825
cnn,3,2,0.03735652339141264,0.9874294270555283,3.631195544937243,0.5069062046283357
cnn,3,3,0.031103626487145954,0.9893064170647139,3.3505959614857392,0.4619213676031839
cnn,3,4,0.019428143232720893,0.9929352089304041,4.406562336363652,0.41694176876782335
cnn,3,5,0.020857921735423775,0.9932954394563319,3.317536224537031,0.47007456492311883
cnn,3,6,0.014873607119062802,0.9951665962777501,5.241537755120445,0.49661360898300955
cnn,3,7,0.012703939420964499,0.9962964100343785,4.430330266096457,0.4618166656453098
cnn,3,8,0.013989316683927024,0.9970069922244115,5.038369740969424,0.27841431497453195
cnn,3,9,0.016105830276201327,0.9941536092577072,3.7484483808576914,0.49405528378806585
cnn,3,10,0.007721049356944408,0.9970500676601629,4.8740808030560645,0.3867508613047515
cnn,3,11,0.012500792666160873,0.9951259565411705,4.221004127831889,0.5271837727239269
cnn,3,12,0.00729531007793304,0.9973684831047622,5.163770982191936,0.46183582046604094
cnn,3,13,0.007707033483211255,0.9974015946690172,5.712020334227273,0.4719735666668872
cnn,3,14,0.007475899330714095,0.997437448016926,4.693047414115185,0.49039573341222203
cnn,3,15,0.005665476230196592,0.9980838516834659,5.0529311214710635,0.5022682299671782
cnn,3,16,0.0070475000180538734,0.9972150623056523,6.679472897531989,0.4506807796743271
cnn,3,17,0.00528399395792529,0.9980025722103072,5.009976011834081,0.5156572352866231
cnn,3,18,0.005565491879659106,0.9981719186143333,5.36292992143357,0.5006606663653509
cnn,3,19,0.01111575893092969,0.9956050148727226,5.015657837751318,0.462153089350872
cnn,3,20,0.004842431713447025,0.9985198345792664,6.166322752729095,0.4885352500130014
cnn,3,21,0.005582085214762255,0.9977710483518262,6.748649733630515,0.35596075285397083
cnn,3,22,0.005388838277155496,0.9982815232630765,5.1788272041533805,0.4583980142844431
cnn,3,23,0.005251735028974794,0.9981380663354629,5.4348308722177405,0.460960492928449
cnn,3,24,0.004774424446389196,0.9982987092224155,5.852264824315789,0.4879111772859641
cnn,3,25,0.0038532320107507612,0.998541372297142,5.742191469783192,0.4138931119056463
cnn,3,26,0.002933398614912795,0.9992236293115906,5.644731935755749,0.48500925363715885
cnn,3,27,0.0035822482324540184,0.9990622457100226,4.970659320901736,0.4663797921655315
cnn,3,28,0.0071644048756788785,0.9979730716899734,5.797098504831521,0.36869017036499874
cnn,3,29,0.0027913734714177774,0.9989705677352338,5.081163552144321,0.4930325160231923
cnn,3,30,0.000962236422667701,0.9996847609691882,7.073338668403534,0.4168367385534912
cnn,3,31,0.008183301538515764,0.9980025722103072,6.483355508865648,0.41105883897556206
cnn,4,1,0.18720451116469908,0.9335135666825005,2.7436988096349784,0.5181711539337616
cnn,4,2,0.03739576129426743,0.9877218196644203,2.035397782485363,0.6722324723247232
cnn,4,3,0.023294096631946527,0.9922263155967327,2.724234347565069,0.6111373058175026
cnn,4,4,0.023963441984134404,0.9918448345110721,5.597377820184895,0.538887749988611
cnn,4,5,0.01694949029966036,0.9945750934663545,3.974772036908764,0.5281855040772631
cnn,4,6,0.01581010176192245,0.9947640477845869,2.911774749251426,0.5909001867796456
cnn,4,7,0.017097895250022973,0.9932886128656504,3.973836909436327,0.5038084825292697
cnn,4,8,0.011333525840584318,0.9954140028871459,3.5182461788174755,0.5727802833583892
cnn,4,9,0.01087913328307125,0.9964392014286526,3.4156063134386057,0.5638080269691587
cnn,4,10,0.011998418645399161,0.9960876271127023,4.953484200372022,0.5328971345269008
cnn,4,11,0.01325643579822537,0.9956895181856075,4.143999687263868,0.5763655414331921
cnn,4,12,0.005520565794702432,0.9982240521364413,4.330571559391004,0.523287093982051
cnn,4,13,0.013488156481639355,0.9952403478871844,4.772565932094248,0.5260796774634413
cnn,4,14,0.006213530312989849,0.9981519868396327,4.747733170004976,0.5408751309735319
cnn,4,15,0.007938087213490992,0.9973606781089925,5.835331775562165,0.5809655596555966
cnn,4,16,0.009419418477975543,0.9964252387847354,4.107501086456095,0.5899902054576102
cnn,4,17,0.007675255295541803,0.99727358408926,5.595158708110632,0.5121167600564894
cnn,4,18,0.006272794372971138,0.9977017504622028,4.653693471949558,0.5534258120358981
cnn,4,19,0.007592182239723452,0.9973501761462525,4.753117718786042,0.5665835269463806
cnn,4,20,0.0069449344651292015,0.99793963399375,4.967817362965008,0.545384037173705
cnn,4,21,0.006692021659592335,0.9980638267408933,4.2058314936901215,0.6225354197986425
cnn,4,22,0.0069120004728602785,0.9980127653695652,5.582564505113394,0.5337410596328186
cnn,5,1,0.19532093984638282,0.928024783103261,1.2998649809456042,0.7094894653932688
cnn,5,2,0.05116331838445025,0.9828048959669564,2.2669889382765605,0.6088796268849115
cnn,5,3,0.027987091108167796,0.9898182594779166,2.312258872235045,0.7069824020031521
cnn,5,4,0.023842395392690646,0.992253291639717,2.3031589439040787,0.6891665565624571
cnn,5,5,0.020425039576222822,0.9933172040271342,3.529276614611191,0.6356505379458226
cnn,5,6,0.01996391393239955,0.9930758847490693,1.880948399819992,0.6746195883780937
cnn,5,7,0.017515342459228124,0.9940887130207541,2.703724716205972,0.6857771798709061
cnn,5,8,0.018275958448066378,0.9928148341675658,3.304124301299174,0.6623941848067295
cnn,5,9,0.013741952742948118,0.9954972093866594,2.7304189206341634,0.6693866665505682
cnn,5,10,0.010545710272055185,0.996703816808163,3.853893634106739,0.6676038049238602
cnn,5,11,0.011551582578478567,0.9959123957595178,2.782456657023987,0.6749914913738242
cnn,5,12,0.010070758967087924,0.9967235481116016,3.78287047898948,0.6635752212400549
cnn,5,13,0.012664705108058295,0.9960107221184918,3.209145487230681,0.6602721075687211
cnn,5,14,0.011679700118510942,0.9965843970650016,2.9288725250699414,0.6648049338295784
cnn,5,15,0.009123536990679255,0.9970852877104033,3.318060376459586,0.670391255466879
cnn,5,16,0.010306363068503955,0.9963618085127998,2.054284353833951,0.7184071586791584
cnn,5,17,0.010336022705352077,0.9964353803666824,3.842154496033093,0.6287681225534939
cnn,5,18,0.007869856673626342,0.9971497814653413,4.029371193412915,0.655307912574355
cnn,5,19,0.005586633632422344,0.9976605377624623,4.068892827057747,0.6506401155885982
cnn,5,20,0.006291924964499332,0.9978630012348382,3.315634683692446,0.6799533643997567
cnn,5,21,0.006281666081461335,0.9976766079449967,2.806720533680468,0.6974166334461129
cnn,5,22,0.009361184214509913,0.9966107266756424,2.5684144252460666,0.6764179340008235
cnn,5,23,0.005269546530827242,0.9985148774604959,4.7231649350747755,0.6787097862514483
cnn,5,24,0.007700561044571624,0.9973136870170327,3.2845416059783705,0.6632568244734464
cnn,5,25,0.006129720531726541,0.9983863796183899,4.691073536400481,0.6278225198380022
cnn,5,26,0.0051988721321659225,0.997812310895493,4.036858535077685,0.6986353829373936
cnn,5,27,0.006549329564626937,0.9979514619420929,4.001388103262879,0.586334982309503
cnn,5,28,0.005205736734257788,0.9979754288944097,4.301716774526487,0.600802221164717
cnn,5,29,0.0032460099756086874,0.9986749411396966,3.8848870179690422,0.6345291565411807
cnn,5,30,0.0047353304627661625,0.9983383498223736,4.248527148198391,0.6107099279672391
cnn,5,31,0.01382174928101247,0.9954819267568998,5.1332461109518235,0.6478894537329491
cnn,5,32,0.003693569272349808,0.9989387481559117,4.020988430383916,0.6653891675881979
cnn,5,33,0.002972568656858208,0.999188453871529,3.8188566305858904,0.6811062501206729
cnn,5,34,0.003721006861145764,0.9989745496418845,3.2500619012456444,0.6976902345200737
cnn,5,35,0.004170038365645406,0.9987736612750581,4.571189276414976,0.647535735283484
cnn,5,36,0.005979833478462145,0.9984374637341223,3.063493305840917,0.6961564292466562
