model,fold,epoch,train_loss,train_balanced_accuracy,val_loss,val_balanced_accuracy
cnn,1,1,0.19848057569171756,0.9266544239017215,1.8888390610898989,0.6219902522890816
cnn,1,2,0.044229436557417595,0.9842670077985923,1.9643826929972639,0.6516995166101759
cnn,1,3,0.029161806701300426,0.9895750998211498,2.1954140213497455,0.6263420845367856
cnn,1,4,0.02632139467190987,0.9912986323833906,3.174587218274766,0.5527434617083417
cnn,1,5,0.025318789405924365,0.9917619137889185,4.016951263693548,0.5339875083251546
cnn,1,6,0.01343584216214927,0.9949981012751379,3.9546221146909994,0.5546552515899404
cnn,1,7,0.015663874368767258,0.9942302099758568,3.3911188517074247,0.6022656359378479
cnn,1,8,0.010753957018403945,0.9967235843360228,4.116375315484249,0.5574445385443537
cnn,1,9,0.013696382994319906,0.9952179919693013,2.7750805439026,0.6537575666503578
cnn,1,10,0.012686781124356901,0.9954749492812537,3.7993450447406363,0.6041858578056977
cnn,1,11,0.012597833965138796,0.9955757388460859,4.479226183460208,0.5717332683444821
cnn,1,12,0.013652166717320842,0.9956208929111477,4.447219075975738,0.5752898770612881
cnn,1,13,0.006329281434825764,0.998079151152169,3.401298644353494,0.6275364749486746
cnn,1,14,0.010326557079807595,0.9961282982438059,3.876024333518379,0.588432568207676
cnn,1,15,0.006647916709641486,0.9977041228488174,4.210425115760397,0.6064699811156989
cnn,1,16,0.013304345218763886,0.9961612829409137,3.222608367036889,0.6218173701383806
cnn,1,17,0.0056581711262313735,0.9982958802863635,3.6876335002817053,0.6088524159226562
cnn,1,18,0.00931796365709418,0.9970913691587245,4.0693057956880025,0.5715625558663143
cnn,1,19,0.008444564777404687,0.9972076758227885,4.219140913895177,0.6175941873569724
cnn,1,20,0.009031000088082062,0.9970421331729812,2.3848651980429283,0.6943773652184003
cnn,1,21,0.008344118609003113,0.9977109992347654,4.763179879028587,0.5508623754464789
cnn,1,22,0.008133351128836716,0.9971808333222253,3.561043916786321,0.6516222123893104
cnn,1,23,0.005309875052918683,0.9980809154795042,6.087288316774522,0.515535734220269
cnn,1,24,0.011587680803961867,0.9966935802754909,5.494054105023395,0.5420338391379673
cnn,1,25,0.004009127202565511,0.9985422463863882,5.079262676508475,0.5710334575399271
cnn,1,26,0.003333816169032243,0.9991020492647582,5.0042215375683305,0.5653967540289166
cnn,1,27,0.002286846382758785,0.9992024717348889,5.517956295427365,0.5674133093572403
cnn,1,28,0.013475576373852723,0.9962122832539921,3.8097090857427465,0.5661019702917424
cnn,1,29,0.00588651706571291,0.9977323625820139,5.263189989928106,0.5796330504432784
cnn,1,30,0.004670702140901849,0.9983045209996471,4.977942263110072,0.5558852664829251
cnn,1,31,0.007172255517958512,0.9977639500464881,4.431447525611897,0.5743308641799092
cnn,1,32,0.001349053516192173,0.9996390915632466,5.457724262587792,0.5520852909947179
cnn,1,33,0.0029087918989916537,0.9990596896649633,5.88396538612877,0.5567852796903936
cnn,1,34,0.011341951646450828,0.9965913934780252,4.403529069748768,0.5847322610877755
cnn,1,35,0.0028857362809597328,0.9991408802098826,5.898040210967531,0.5502268221923182
cnn,1,36,0.007533201628841186,0.9974062031697035,4.867512638869736,0.5487671039581082
cnn,1,37,0.006729985072410308,0.9976229323038982,4.9637851699526845,0.5686627213429433
cnn,1,38,0.002921589374983423,0.9988415632981353,5.101648579761155,0.5544280593417993
cnn,1,39,0.0036055279603619266,0.9992905386657561,5.6789905980149005,0.5533217862700303
cnn,1,40,0.007769956322328233,0.9971000098720081,4.426172094795216,0.5686584480792737
cnn,2,1,0.16259377566886316,0.9420530004543511,3.0926134142990294,0.4049931833674165
cnn,2,2,0.0328669495327481,0.9884900293117805,3.4314571704268455,0.40907558888131484
cnn,2,3,0.03062272685074089,0.9902193606873014,4.270018944349999,0.4102533515110202
cnn,2,4,0.01578313687070814,0.9947014997520295,3.361405271129826,0.4811520109066121
cnn,2,5,0.009429193775618261,0.9972647546260737,3.31671578139079,0.44461296674998113
cnn,2,6,0.016489978322732492,0.994714478833826,4.062602306624964,0.42474626978716956
cnn,2,7,0.01252014627955281,0.9964110694541115,4.857735007796866,0.4440581685980458
cnn,2,8,0.012483573457705732,0.9960709010691752,3.8753238533821244,0.4430621828372339
cnn,2,9,0.010665096747546617,0.9964249282791714,4.154271820326318,0.4405513898356434
cnn,2,10,0.008766321623550108,0.996926785599295,4.260829161325613,0.40789403923350753
cnn,2,11,0.011673115450627247,0.9963045604647,3.931884622353774,0.47474816329622055
cnn,2,12,0.007299108361516138,0.9978061352930748,4.0932613521411145,0.41809247898204954
cnn,2,13,0.009125629319917785,0.9974848488383142,4.203767669971414,0.4433537832310839
cnn,2,14,0.005719502887100322,0.9982895505546546,4.369796466494704,0.41297811103537074
cnn,2,15,0.012983991386742859,0.9956391084930063,6.000671657083234,0.328118609406953
cnn,2,16,0.006092939028229518,0.9976429805131367,6.487114011776287,0.4268991895781262
cnn,2,17,0.006419016092715687,0.9980446715638595,3.5136400119535036,0.435410512762251
cnn,2,18,0.004488132406627934,0.9983600551702413,4.430083636424863,0.48221426948420815
cnn,2,19,0.010443351303543638,0.9964743516064244,3.3384928789855555,0.5162652427478603
cnn,2,20,0.006902243743679813,0.997801112187959,4.074594869709484,0.43019957585397267
cnn,2,21,0.005083537431968833,0.9986547973599212,4.519922669281968,0.4364689843217451
cnn,2,22,0.0017879097124831069,0.9994590592046303,3.424955245720677,0.49876921911686734
cnn,2,23,0.0063853529806798745,0.9978896189904581,4.107487669535554,0.4395497235476786
cnn,2,24,0.00414166836526317,0.9983214115666269,4.518546999185984,0.4650231008104218
cnn,2,25,0.006072675076003565,0.998045111435491,4.604674922086567,0.40871392865257894
cnn,2,26,0.0017374505106919282,0.9996351930663652,4.091131413372182,0.5195997121866243
cnn,2,27,0.0070893012394289655,0.9976811842451193,4.7157074533597605,0.47164659547072635
cnn,2,28,0.0034303203678107456,0.9986238160912121,5.249532578049508,0.3384174051351965
cnn,2,29,0.004034854288747023,0.9985847326159663,4.047265401638808,0.41817389987124143
cnn,2,30,0.0033172523017526087,0.999125673411336,4.6296162997626755,0.415795652503219
cnn,2,31,0.006202413189634612,0.998013250423519,4.733110903700367,0.44416609861395134
cnn,2,32,0.006053216487729964,0.9980976138641653,4.939004935732236,0.3895516170567295
cnn,2,33,0.0036645791534915856,0.9985357491603447,5.417531507162305,0.44702151026281906
cnn,2,34,0.00104855005734113,0.9997555608808364,5.998394413902648,0.41027418011058087
cnn,2,35,0.0020991474872396787,0.999125673411336,6.013023553545515,0.4442134363402257
cnn,2,36,0.00412378175242465,0.9988812342921723,5.291796337379229,0.442283950617284
cnn,2,37,0.009084332449766835,0.9966454623630433,4.709609817902771,0.44629629629629636
cnn,2,38,0.0049653041785595094,0.9988309312216561,4.405249429180215,0.45013822616072113
cnn,2,39,0.001864752134197424,0.9997048179386886,5.334427311690556,0.4122169203968795
cnn,2,40,0.0036416644199259466,0.9991454350847748,4.767190467090402,0.3982825872907673
cnn,2,41,0.00510690849574036,0.9982539860524614,4.409799748204594,0.43471748844959474
cnn,2,42,0.0030416065423587288,0.9989881831532155,4.6668850573114895,0.4313318942664546
cnn,2,43,0.0025912747257525602,0.9989189981525236,4.6524509163760905,0.4569965159433462
cnn,2,44,0.005363706998792923,0.9981604561448464,3.558295674866051,0.4740949026736348
cnn,2,45,0.0013108416582302746,0.9994599389478934,4.394708603045773,0.47179807619480424
cnn,2,46,0.00035339197035330416,1.0,5.039097274085226,0.45489282738771486
cnn,3,1,0.186487320062858,0.9272081429994773,2.4280622242115717,0.6996074794985416
cnn,3,2,0.04185070451433031,0.9869280888246562,3.589119649007949,0.5957196737967015
cnn,3,3,0.03152826757481701,0.9893243753875719,2.217282323952304,0.6418407928878972
cnn,3,4,0.02293318432067778,0.9918633671019229,2.0323881070865015,0.6826726593976528
cnn,3,5,0.015244422126586157,0.9947694635420671,2.213968067026566,0.6809425550331341
cnn,3,6,0.014641929479487949,0.9949693178033542,3.718959568525108,0.6380661999159635
cnn,3,7,0.012768102314749768,0.9947621031692077,2.2467384413042124,0.666449571322482
cnn,3,8,0.012064922524971444,0.9966604401285748,2.778345247226253,0.6629181962092573
cnn,3,9,0.01205996434623323,0.9956055425888489,2.94027151285349,0.643697310105103
cnn,3,10,0.011916018696518729,0.9960433194373995,2.992585575768655,0.641920583516122
cnn,3,11,0.01014823121753399,0.9961961288815134,3.108837416929219,0.6617065348152543
cnn,3,12,0.01026425950390758,0.9966104649080311,3.8605619613014754,0.6669310768751869
cnn,3,13,0.009164418798261452,0.9965796170922508,3.199310816712609,0.650817447502819
cnn,3,14,0.005911618763100462,0.9979562839007099,3.955786358904015,0.6823939258556101
cnn,3,15,0.008630278727821992,0.9977799637032313,3.4678266537920988,0.6343820585555696
cnn,3,16,0.010374885626181343,0.9959198349325035,2.850432804095298,0.700679134476026
cnn,3,17,0.0058534217056153606,0.9980444206890055,2.936455156051874,0.6926041720850886
cnn,3,18,0.006427392593868143,0.9978680771810828,3.244604305814555,0.6840704579688667
cnn,3,19,0.003850745510997925,0.9988804064940119,5.62178014467904,0.5838774357082825
cnn,3,20,0.009170257161014264,0.9970321846178517,4.21384302011244,0.63442407600754
cnn,3,21,0.005500229367496488,0.9979563072111537,4.022027364600564,0.6223989904437651
cnn,3,22,0.01048040207348322,0.9962078959134179,3.1844157546471026,0.6748942542114659
cnn,3,23,0.005697626706809723,0.9977682432922147,3.0927157432809627,0.6971801250874128
cnn,3,24,0.003835850903291205,0.9989876706870708,3.58294037267232,0.6682968891210183
cnn,3,25,0.005260296673792944,0.9979254593953736,3.0904876316256176,0.645797814780877
cnn,3,26,0.0040971942476327565,0.9984469896836186,3.546978335517597,0.7148626911119988
cnn,3,27,0.0026829666480703627,0.9990258555652666,4.296701758079921,0.6797300160252563
cnn,3,28,0.011218616152499103,0.9961770247871938,3.4006863844108133,0.6250878575874524
cnn,3,29,0.003075903307095985,0.9992139661050933,3.689558652675907,0.6627912331601796
cnn,3,30,0.0020840435947205504,0.9993711355873645,4.03042541635867,0.6569978859199878
cnn,3,31,0.005931187959730003,0.998239775049472,3.101833205063839,0.681073889949483
cnn,3,32,0.0008466439131268104,0.9996165584101503,4.536137367915866,0.6766843927657149
cnn,3,33,0.010316362627136956,0.9976728626832793,3.036706902438116,0.6847907764337172
cnn,3,34,0.004926491082488925,0.9988995105883317,3.4270218480193084,0.6805058644953969
cnn,3,35,0.005657908612699158,0.9982016367921642,3.6031163392784666,0.6857991507252225
cnn,3,36,0.0028319356560614728,0.9990567266914905,3.9774686393288197,0.6950251205900196
cnn,3,37,0.0024349384903573556,0.9992829754886251,3.8888614206702634,0.6325299739635187
cnn,3,38,0.006198169459646474,0.9983397954218911,3.453999939858387,0.6527123846301964
cnn,3,39,0.0018292027993002994,0.9993520548034885,4.176653064011926,0.6473319196134962
cnn,3,40,0.00427567574673145,0.998999484339863,3.949856360933851,0.6304568488153723
cnn,3,41,0.006497923406748772,0.9977491391978949,4.5067096582908635,0.6744895371724469
cnn,3,42,0.0020986602810890848,0.9991948153898859,4.6209943472652135,0.656316670553956
cnn,3,43,0.0035862195478935785,0.9988995338987755,3.546156728400943,0.6884909092690831
cnn,3,44,0.005803076695469993,0.9983397488010034,3.78785182747402,0.666732165690486
cnn,3,45,0.0059290210318067105,0.9978063815495225,4.700163558715434,0.6292983532698987
cnn,3,46,0.002500368288481349,0.999018541813295,5.370535520470846,0.6386068276150566
cnn,4,1,0.189609656251829,0.9304899395215188,1.9369447548451852,0.5764664062767672
cnn,4,2,0.04509279791303094,0.9846911937503654,1.6446215618352287,0.6013382099336462
cnn,4,3,0.031038432631693365,0.9886005336621358,1.7232507427934012,0.675475382875938
cnn,4,4,0.025806381261169502,0.9897174280739436,2.904473741171302,0.4654580806523452
cnn,4,5,0.023326017321475472,0.9913561042732186,2.515090897551928,0.5899624261943103
cnn,4,6,0.016904485583582745,0.9939417049134183,2.3569446598160657,0.691231541439682
cnn,4,7,0.017177016510524685,0.9938997760592608,2.091745712029986,0.6544988636493416
cnn,4,8,0.016190453976849786,0.9939839757070724,2.7968999599316176,0.561285846438483
cnn,4,9,0.013338062777279166,0.9951273362781494,2.6777684525203145,0.6208000708077798
cnn,4,10,0.011693676978837983,0.995738326169485,2.9407090013565362,0.6177730382247804
cnn,4,11,0.010736692200063973,0.9964843281263605,3.376995721349415,0.5574630828793641
cnn,4,12,0.011320982257233549,0.9963181833849911,3.510727729978208,0.533131759573326
cnn,4,13,0.009828946256152169,0.9966837026897597,2.3700728430661093,0.6473758294217745
cnn,4,14,0.008953444062594096,0.9970320040929367,2.3781228037442284,0.5840888066604996
cnn,4,15,0.008660817966060283,0.9971790183179577,2.562088800318041,0.5436401480111007
cnn,4,16,0.006984942195114495,0.9972882708578314,2.7459592859598927,0.6612615776430145
cnn,4,17,0.009107284385737768,0.9972524217874413,2.8858393156718662,0.598576992039835
cnn,4,18,0.00709055332871191,0.9974745946886494,3.8506885776699176,0.4765694772786971
cnn,4,19,0.008109539023997586,0.9967877394875231,2.7174139065825322,0.5920752389762566
cnn,4,20,0.008021364476307953,0.997596556021608,2.8547393196160624,0.6756843800322061
cnn,4,21,0.005684522967224293,0.9980683666783934,2.938145567569184,0.606925457680931
cnn,4,22,0.005132789047864763,0.9982647800539358,2.4461089704180505,0.6226188028916984
cnn,4,23,0.00849126951146041,0.9973623809609187,2.469166944601886,0.6044243441714919
cnn,4,24,0.004805018731799941,0.9987492995038059,2.505447463455627,0.6310140930322862
cnn,4,25,0.005380623197434763,0.9985951569219176,3.1220225677170936,0.5868831443222439
cnn,4,26,0.009190786291090144,0.9972202405385114,3.3413913640762414,0.5917891527049713
cnn,5,1,0.16789937396497784,0.9373172397258677,3.9159484362555568,0.3638631925172166
cnn,5,2,0.036511999161280305,0.9877819297117755,4.574727258904193,0.3456750151323078
cnn,5,3,0.021692632036310614,0.9931010801541009,4.857207650782535,0.31446819931247927
cnn,5,4,0.019295273274129266,0.9939460637071983,5.33996929133164,0.33548554721851054
cnn,5,5,0.01754405413243917,0.9945309249001418,6.412886747988231,0.2762342823859938
cnn,5,6,0.011331906977576772,0.9962050847557453,6.281076759816646,0.2567886958805861
cnn,5,7,0.006638197369926443,0.9976368195760843,6.005215568163533,0.37993627299825267
cnn,5,8,0.01267253489011393,0.99494949141003,5.354484232684522,0.24904666461095695
cnn,5,9,0.006374053418148458,0.9980353916483123,7.723208806694984,0.2873405397380112
cnn,5,10,0.007603902641932043,0.9966335759254313,8.222008734403042,0.3080246913580247
cnn,5,11,0.005815709296993444,0.9975827577880123,7.569550318945104,0.2722222222222222
cnn,5,12,0.004998139812636106,0.9985100940727496,9.47439351770383,0.2941349459234134
cnn,5,13,0.010792065117296837,0.9965233782228102,7.723454523238093,0.311102545653887
cnn,5,14,0.005397054412600783,0.9979693700080802,6.7921757577662145,0.3286834321216066
cnn,5,15,0.006196039094610682,0.9974286459434106,8.18885391375201,0.3037037037037037
cnn,5,16,0.004602826365491881,0.9982697431639623,8.769873987353865,0.2907307477073126
cnn,5,17,0.002721980977988292,0.999184896610246,9.960843957986086,0.29197502312673457
cnn,5,18,0.005437516181450109,0.9981055226073839,8.190144800620308,0.27437415059215864
cnn,5,19,0.0038967982065934246,0.9991989305888831,8.352785182520371,0.3154298146435057
cnn,5,20,0.0020036763141841633,0.9993231233360267,9.15647282508514,0.4410493827160494
cnn,5,21,0.0023827288433347013,0.9992870207932524,9.360682446031843,0.30369913545985083
cnn,5,22,0.004309979593794543,0.9984960600941125,9.000058350277135,0.3037037037037037
cnn,5,23,0.006740133636168864,0.9977409789514531,9.811179490544122,0.2975305786822901
cnn,5,24,0.0040107069578205826,0.9982697431639623,8.99978118169732,0.3129615353867589
cnn,5,25,0.0020108235949629102,0.9992750609410922,9.532914182934794,0.31450617283950616
cnn,5,26,0.005581602709690647,0.9983437993896942,9.874067271530965,0.29443930517010997
cnn,5,27,0.0041716976831587625,0.9989567285399125,9.698972208514082,0.2968901679971677
cnn,5,28,0.003746739614551308,0.9987203028977855,12.981912912992046,0.30833333333333335
cnn,5,29,0.00036851619906847676,1.0,12.006045438366398,0.27191243818595034
cnn,5,30,0.005517363696230233,0.9981836881519554,10.296676374098428,0.2598759721793949
cnn,5,31,0.00430131173486597,0.9984640668701775,11.951839081608185,0.31944273135299966
cnn,5,32,0.008486146618883786,0.9973906922604531,8.5018325387173,0.26417040691632115
cnn,5,33,0.0037567324895863936,0.9984820261154752,9.433665150004435,0.3043189890476354
cnn,5,34,0.003593801200049424,0.998822427080792,11.157486393537367,0.28302412032754304
cnn,5,35,0.0027761706319303714,0.998940620434798,12.129823947683045,0.23209876543209876
cnn,5,36,0.0013357788454198315,0.9995975026611114,10.473372210646074,0.24968964493324652
cnn,5,37,0.004056274321263847,0.9988104672286316,11.05012358541047,0.2808636265003826
cnn,5,38,0.001930823813464283,0.9994733099139678,11.170498216787863,0.26203646600655545
cnn,5,39,0.0022662127197409427,0.9991690114914252,11.73124035832992,0.2891975308641976
cnn,5,40,0.002343102725397856,0.999184896610246,13.194898840295894,0.26018518518518524
