model,fold,epoch,train_loss,train_balanced_accuracy,val_loss,val_balanced_accuracy
cnn,1,1,0.22314505039630875,0.9160770955018925,2.840603048265245,0.42736174064098914
cnn,1,2,0.04550136046079265,0.9860034669842251,2.6761346821960013,0.4429733517265541
cnn,1,3,0.03306309082206519,0.9894730035197337,3.011877495845959,0.40553402380900244
cnn,1,4,0.01719463803400781,0.9945051150403165,3.987081488749235,0.4039760742151861
cnn,1,5,0.022918131604808933,0.9922641953289365,3.030361618086865,0.4569011072426956
cnn,1,6,0.018047792135165316,0.993783621491425,4.313390897861803,0.36406789434116504
cnn,1,7,0.019137631222034924,0.9937400143049606,3.2539062048195215,0.5148809914821871
cnn,1,8,0.016199656480157906,0.994238905815791,3.7560297305737267,0.37351120745655325
cnn,1,9,0.012186536148304308,0.9960925431160108,4.753124484258273,0.4362134781434525
cnn,1,10,0.009076323035406491,0.9965545739054397,4.483315613482956,0.4334004831869904
cnn,1,11,0.011491822290973864,0.9959311965260927,4.7489064533326495,0.44467764420796013
cnn,1,12,0.0071138279745966105,0.9977695713110499,5.608612600161395,0.4063660980825798
cnn,1,13,0.013753857577800921,0.9957661053788075,4.981221929092763,0.4206135452933062
cnn,1,14,0.006953000590417119,0.9975646175346675,5.602227417342945,0.47227331450217874
cnn,1,15,0.009300440285789876,0.997234435240097,4.689744476485953,0.4412537315611611
cnn,1,16,0.008659509210162212,0.9968748813388593,4.786186161780111,0.45689672790441366
cnn,1,17,0.009458836215734758,0.9963533646864245,4.958451172413842,0.48023860094739684
cnn,1,18,0.005345055860365351,0.99775908028862,5.25264072406089,0.4497708146299095
cnn,1,19,0.005979459874369997,0.9975382478356959,5.9144633551264105,0.40602888903486684
cnn,1,20,0.00801948003362186,0.9964957042037127,5.113835904635231,0.39745122511988434
cnn,1,21,0.00426137253930392,0.9988022400818822,5.077644945211308,0.3631055347536987
cnn,1,22,0.0030784898345711667,0.9989372169728288,5.185186381180675,0.3984066507550709
cnn,1,23,0.010129336854827588,0.9969638652969252,3.850931187136101,0.47236965994438246
cnn,1,24,0.008219976452125336,0.9969313652941699,3.8590045633692744,0.4615388264833184
cnn,1,25,0.0062728152219848985,0.9983138395934817,4.553424252699808,0.42878137613406614
cnn,1,26,0.0017848253285035808,0.9993532548293769,5.253891341571065,0.4209200989730452
cnn,1,27,0.007874334471043326,0.9975382478356959,6.215743629963269,0.30927397870181816
cnn,2,1,0.21649848843603212,0.9193500415357004,2.874884896187319,0.4250536337607578
cnn,2,2,0.04809403373508506,0.9835817927220831,3.205981118682151,0.5331637880450545
cnn,2,3,0.03147938034374572,0.9894520269626246,4.090828462694642,0.5000395652110692
cnn,2,4,0.02367629734277261,0.9919503909892707,3.293428975274461,0.49782153634396376
cnn,2,5,0.020533619220165562,0.9929146514280532,4.265616436142813,0.42314556140413656
cnn,2,6,0.01893065438128998,0.994072323214081,5.0218064092381,0.5117921830322886
cnn,2,7,0.01412738309689471,0.9957549371371898,5.171813157276928,0.4138870843356331
cnn,2,8,0.010003229200825133,0.9971543353665483,4.573404811688508,0.5553580516641202
cnn,2,9,0.014699514742984787,0.9945130350194914,4.727912250683605,0.5043562133271896
cnn,2,10,0.01320650618669733,0.9957696269887854,5.342610814300214,0.4517591237907861
cnn,2,11,0.009659564928700083,0.9963718319389935,6.299674866033103,0.4801515075921408
cnn,2,12,0.007016995959146507,0.9978073288819251,5.793216839824557,0.5254968529374862
cnn,2,13,0.007376002629133321,0.9973212724658346,6.369951745488708,0.5092223337605923
cnn,2,14,0.006500887021762971,0.9976644575916875,6.877685699729328,0.4528065570281929
cnn,2,15,0.009470585515939798,0.9974160771681477,5.084463149514288,0.45393759615395507
cnn,2,16,0.008266960790946755,0.9970595306642349,6.857802179276001,0.5060821324673568
cnn,2,17,0.0060043996457957724,0.9980904145153292,7.406644525726531,0.48093880653247406
cnn,2,18,0.009125792488277537,0.9964679651148423,6.775980101744261,0.4142350126518992
cnn,2,19,0.009988240380719413,0.9957081339926278,7.062347492143292,0.5298140931386314
cnn,2,20,0.007359928249701741,0.9971903690499482,6.218379581246115,0.4692615402377935
cnn,2,21,0.003992739352336238,0.9986847020419661,7.557654616500145,0.36696038437463235
cnn,2,22,0.0035176419686052188,0.9988969837519326,7.701854715328498,0.49572668728341546
cnn,2,23,0.009112762429724489,0.9962542899011672,7.3612861301602255,0.4678641499221974
cnn,2,24,0.005539226261377647,0.9977952959774008,8.373735651575013,0.515450537086421
cnn,2,25,0.007316715047025215,0.997735196484952,6.89171132672416,0.5051079610446365
cnn,2,26,0.0046565005848809935,0.9985912258131884,8.176808848143903,0.4727068307543241
cnn,2,27,0.00797344285831433,0.9970982863248793,7.872238349815537,0.524826691053604
cnn,2,28,0.004725071423765057,0.9985537986260796,8.04515437441503,0.5306885940131323
cnn,3,1,0.20588570492774513,0.923468461803464,2.5347815338375206,0.4414248712289813
cnn,3,2,0.039277937301916865,0.9863296221455459,3.394638401544291,0.4398955963191031
cnn,3,3,0.024414512802572324,0.991334115157991,4.369442507299039,0.4056088674043247
cnn,3,4,0.024153238019685625,0.9921873551646772,3.1403946471619855,0.4373800689628114
cnn,3,5,0.024283370889004022,0.9916939458804136,4.0871323985274834,0.4469277181451199
cnn,3,6,0.014613677613072338,0.9958230578191264,3.8679761029448003,0.4390213448980424
cnn,3,7,0.008415121944186208,0.9974609468917929,4.557969016418506,0.5034286574245713
cnn,3,8,0.022382878405356417,0.9927134726898097,5.523842585803747,0.4426148022110046
cnn,3,9,0.008883978276922529,0.997065327256227,5.542028794390607,0.39143947972213805
cnn,3,10,0.010131059530236339,0.9964766863482443,6.07085047285032,0.3346268616548631
cnn,3,11,0.010453746692019195,0.9960755218021188,5.046216988526814,0.41934983208868554
cnn,3,12,0.011704338632197116,0.995760534436276,5.709308736358197,0.4270533723243734
cnn,3,13,0.009982753387807212,0.996292719519264,4.215446605975379,0.4278079408232034
cnn,3,14,0.007830979098123083,0.9972533262653803,6.078815852098784,0.40191281294514075
cnn,3,15,0.010339686653787794,0.9963607878126738,6.836738973443617,0.35924391780659054
cnn,3,16,0.007273151699756194,0.9975738585417825,7.610629502286476,0.42170398805418635
cnn,3,17,0.007250733766974398,0.9980405333563391,6.889487366007121,0.407361896894405
cnn,3,18,0.009444261612572648,0.996810305248256,7.3014412603926235,0.43514691576222647
cnn,3,19,0.007352458624174167,0.9972437491746478,6.912831388520196,0.43666180644909164
cnn,3,20,0.0052836667620795195,0.9982073428063449,7.0008352261302695,0.3107159419621864
cnn,3,21,0.008770969438277071,0.9969590058113891,6.8498737453700365,0.4566450289800849
cnn,3,22,0.0056846498545244884,0.9978475120839224,6.442507259301538,0.4947566104398216
cnn,3,23,0.002342261272086229,0.9990308614577433,7.030684294311871,0.43214634621917397
cnn,3,24,0.009413327495410531,0.9966283737969581,6.931276202099109,0.4436054266363123
cnn,3,25,0.01119814305109149,0.9964504745258335,6.1182289400740295,0.4434282171333006
cnn,3,26,0.006557527154188847,0.997948288618201,7.17854313841119,0.4362960141111805
cnn,3,27,0.007261816536865646,0.9978001107023641,6.002166770732502,0.4357066940410288
cnn,4,1,0.2025918455631791,0.926449644996849,1.8560239790048265,0.6337164750957854
cnn,4,2,0.03638436598384319,0.9889498892072547,3.2387276066979584,0.566595098550008
cnn,4,3,0.0269592832810802,0.9908716379755611,2.781156033031098,0.6143055964895046
cnn,4,4,0.019887817756445082,0.9930319968808897,3.2166729187519136,0.6214739496348692
cnn,4,5,0.018712346383462357,0.9937292350357234,4.01583436158382,0.5545731407800373
cnn,4,6,0.012473258242969005,0.9961030400703987,2.4540365845347165,0.6812637128729083
cnn,4,7,0.012658332600712788,0.9957977968720915,3.6354551837988875,0.5739922061761142
cnn,4,8,0.016828455684134658,0.9943288445326969,4.040544222588453,0.5970887775485477
cnn,4,9,0.00710623614627179,0.9976602244930982,4.4010812320274395,0.5616792743229525
cnn,4,10,0.012139753494148576,0.9966180096351347,2.8259714764885473,0.661076726593968
cnn,4,11,0.01553906415071265,0.994807618412854,3.494922669267613,0.5574270557029178
cnn,4,12,0.010445792226245467,0.996274458926267,3.7334956780270407,0.5969594262697712
cnn,4,13,0.01091536221387698,0.9962889008115635,3.196377727145881,0.5787831155647248
cnn,4,14,0.003970502081038481,0.9987010133567996,4.458118282157903,0.5701198546026133
cnn,4,15,0.011474902874372313,0.9966903466734688,3.30173560669305,0.621256181026296
cnn,4,16,0.005586962342990835,0.998004488199097,3.957817696450765,0.5778350853063496
cnn,4,17,0.011746607492933148,0.9956820065660165,4.486941330829529,0.5961112748469071
cnn,4,18,0.008955803147401104,0.997001293848825,4.7741087821460235,0.5693355601401578
cnn,4,19,0.007923188987280205,0.997524261159266,4.811945112951148,0.6186658807348463
cnn,4,20,0.0074910967686352475,0.9977491424081224,3.666235744365069,0.6384729999672528
cnn,4,21,0.007632008176609853,0.997401313716468,4.414863753438205,0.5970887775485477
cnn,4,22,0.007888244302014829,0.9974164685988957,3.458946513172309,0.6792022792022792
cnn,4,23,0.008409735805975605,0.9968993600427666,4.4154625605317595,0.6095326980384451
cnn,4,24,0.004907442265920359,0.9984572574625972,4.510755478374761,0.5937469299538265
cnn,4,25,0.0030166640027994005,0.9995335018483344,4.555301771982043,0.611600681140911
cnn,4,26,0.008138407399682464,0.9969875649606595,4.615013786888828,0.5961325605003766
cnn,5,1,0.21117655646968123,0.9225120324974195,2.6708791426992544,0.6261929744026932
cnn,5,2,0.046313771564985486,0.9845129981454454,1.798635552101685,0.6830065359477123
cnn,5,3,0.03631097453942184,0.9869960131850677,3.392917157510016,0.5809222462675149
cnn,5,4,0.025782967940645055,0.9912684951127785,2.482477707612979,0.6274269350995694
cnn,5,5,0.023926216665031835,0.9909276614357477,3.2393941387919845,0.5514634839443023
cnn,5,6,0.019882238902090187,0.9928276809313289,3.747768426143103,0.539539204756596
cnn,5,7,0.016122204142896543,0.994598171882099,2.678455238277337,0.5941373204800314
cnn,5,8,0.008466379700148038,0.9967068474304183,4.495590365100853,0.5429099175902244
cnn,5,9,0.02041637696377259,0.9926545690700529,2.6278526034841754,0.6356362165825081
cnn,5,10,0.013047596415399562,0.9954227969514955,3.5953593409109543,0.5860526373314098
cnn,5,11,0.01040040555586554,0.9966587757160722,3.741127709677522,0.5911152643889217
cnn,5,12,0.0104281490507487,0.997331835580356,4.215858799899464,0.547641375390736
cnn,5,13,0.015954478269350147,0.9955108228945484,3.1257077473305146,0.569022012372396
cnn,5,14,0.007092156621806618,0.9979773903781805,3.3008255444242023,0.6039663803090912
cnn,5,15,0.012066315933602148,0.9959477216396347,3.452419649200837,0.5929470784969505
cnn,5,16,0.01032605814475885,0.9973333055927709,4.2591340724299585,0.5314064310227993
cnn,5,17,0.011123924443194957,0.9968509842128199,4.3807253276859095,0.5693947144075021
cnn,5,18,0.00799547962739705,0.9971597037273566,4.428509895013535,0.531024985244934
cnn,5,19,0.009498313604381858,0.9963405470641179,3.5589764837643654,0.5783778171246202
cnn,5,20,0.011489598797428176,0.9955463670860105,3.558099056727167,0.5745710101208822
cnn,5,21,0.0037098526542076672,0.9989451722217021,4.933773132864656,0.5071545675126238
cnn,5,22,0.003671137575581771,0.998752473720816,5.030782775028165,0.5127341683607668
