model,fold,epoch,train_loss,train_balanced_accuracy,val_loss,val_balanced_accuracy
cnn,1,1,0.19371970967753538,0.9359216623244885,1.9179026186563197,0.44034047931314446
cnn,1,2,0.04847581731579544,0.9880378473727992,2.580344241213089,0.47796908887113904
cnn,1,3,0.029197545031922876,0.9918634227275583,2.82049070457236,0.40801199104615965
cnn,1,4,0.015610148320907406,0.9965400559215518,2.5108484015901587,0.46098308499903035
cnn,1,5,0.017665687577728805,0.9955839330251113,2.664408929672685,0.44414389584093455
cnn,1,6,0.02102345074730307,0.99574498104364,3.664644543114253,0.4001839974755692
cnn,1,7,0.025727048425010824,0.9940496785200942,3.224462665743693,0.4722756888770556
cnn,1,8,0.019367994151060046,0.9962381220011883,2.365087809530822,0.5322226889789532
cnn,1,9,0.014042203979846552,0.9976337257023186,6.530173148992879,0.4693333333333333
cnn,1,10,0.012774969436167948,0.9969034995093043,4.044669046271119,0.3692227777284725
cnn,1,11,0.009505525290340013,0.9975453960337815,2.8396532064910796,0.46709504744812264
cnn,1,12,0.01265779100384747,0.9970734808113613,4.670285448501977,0.43697356250431424
cnn,1,13,0.017331470161570304,0.9954933481080633,2.9522484246561826,0.5096431118868477
cnn,1,14,0.013049005890536968,0.9967950278746369,3.7650081636894037,0.5036392430652111
cnn,1,15,0.012091378327971787,0.9964550652705233,3.095960574666945,0.5694665036305128
cnn,1,16,0.012987175689970822,0.9979300653566624,3.31047086373988,0.48037807295210483
cnn,1,17,0.00867849401391815,0.9983449814087152,3.4434702965470163,0.4695975603743257
cnn,1,18,0.007742048086412304,0.9977187163533469,2.796653511442712,0.5189644245908482
cnn,1,19,0.015765954393081125,0.9978182547044862,2.445553501810128,0.5818090997840428
cnn,1,20,0.005383614749432024,0.9986513582661481,3.338984332702329,0.48761133627192854
cnn,1,21,0.0050734658868368445,0.9993782454416534,6.703817145644424,0.46147907647907643
cnn,1,22,0.009785237877199296,0.9978965471699341,3.2160686658750803,0.5409488046754561
cnn,1,23,0.01469703798393191,0.9966239628035827,3.715487750651714,0.42016320379190536
cnn,1,24,0.007166478040714435,0.9983807548439544,3.1387193087047502,0.5770487695043504
cnn,1,25,0.004299317794018994,0.9998300186979433,3.1369268529973855,0.518384739027108
cnn,1,26,0.01727281318826484,0.9983807548439544,3.2292011226980475,0.540613719360872
cnn,1,27,0.007350417344012698,0.9982141125594062,3.3197666856181205,0.5294752602497477
cnn,1,28,0.022028150055455217,0.9967279239412282,3.5616270455841965,0.5347959155499019
cnn,1,29,0.00393735717454324,0.9993402167579034,3.0403005417949758,0.5504366476348252
cnn,2,1,0.19219576151401085,0.9377050424103581,3.6681310984300755,0.3493459542258744
cnn,2,2,0.05502429299389985,0.9814320631607106,3.102722647797456,0.5479027799867892
cnn,2,3,0.02780241066404862,0.9925485980293506,3.4486900639544587,0.5015245837331656
cnn,2,4,0.02910606771059722,0.9911919878643904,4.146272593667013,0.4317538428025866
cnn,2,5,0.028685584806926012,0.9897570638153225,4.7035723729126575,0.5337450989528756
cnn,2,6,0.018022666741884165,0.9947259228467139,4.462741175730548,0.5822058072160181
cnn,2,7,0.018256144438434062,0.9946010135191709,4.257406485150484,0.5691536657788278
cnn,2,8,0.013701787762702311,0.9954950111851822,3.9072802634907586,0.5747376517305217
cnn,2,9,0.013400859763660896,0.9950107419865599,4.348068232463868,0.5842252396524624
cnn,2,10,0.015706381879982682,0.9949158022732779,4.519923935588234,0.5056530104742911
cnn,2,11,0.020194884243396743,0.9938727231448,4.431017648382815,0.4999502601809675
cnn,2,12,0.012704016276927094,0.9955045818173943,4.573503993107694,0.558640620987312
cnn,2,13,0.021832443113986983,0.9956848906117465,6.401403858726078,0.32897237147613495
cnn,2,14,0.015408872490314867,0.9949062316410658,3.540057210486767,0.6138730674255747
cnn,2,15,0.0051518257431843635,0.998431853708802,4.074763959759673,0.6042053207393433
cnn,2,16,0.01016824132809925,0.9973887745803242,3.9554030249015297,0.5855350313121076
cnn,2,17,0.009355867086614403,0.9966005449774317,3.675077058124027,0.6000924506975176
cnn,2,18,0.008947755666627777,0.9979367561603428,4.218976131319334,0.6062224859072326
cnn,2,19,0.016863567018687263,0.9945468717699866,3.6005935683380574,0.5640305902267205
cnn,2,20,0.00936802368493259,0.9973358905487647,3.9625236279892886,0.5968789763055339
cnn,2,21,0.002788881497878665,0.9993787354063729,3.937938060869823,0.5878500349148476
cnn,2,22,0.005526933359978782,0.998326085645683,4.432341453570219,0.5538645755731749
cnn,2,23,0.02540235475670059,0.9975894823567252,3.19465942160217,0.634183534559878
cnn,2,24,0.017771164440834614,0.9946634681829423,4.037361854055881,0.5897841816032333
cnn,2,25,0.01882197394538119,0.994188769616532,2.866436836637107,0.5890801661550147
cnn,2,26,0.01698379004412133,0.9959359669844572,4.194606990391143,0.5068041599794485
cnn,2,27,0.013797978973610384,0.9953280461759167,3.457024171861498,0.5897087483407253
cnn,2,28,0.005626321261157551,0.9988211831941424,3.6890420845489147,0.627182471078997
cnn,2,29,0.003186797744083866,0.9994207910880957,3.946064218223584,0.5886841816494763
cnn,2,30,0.004568233469057856,0.998232403650026,4.102582616002429,0.6116060545672649
cnn,2,31,0.0039220815292580775,0.9986109047855293,3.94349829966201,0.5972311292191562
cnn,2,32,0.004791352811428104,0.9990002342708696,3.6251183016976483,0.5674977266790483
cnn,2,33,0.01596005759402836,0.9951177677673037,3.3136699444065565,0.5763676960936364
cnn,3,1,0.18998697941147147,0.9362144877961213,2.3975348503072307,0.46729821086683826
cnn,3,2,0.03714668499453673,0.9889354852200548,2.663803621222669,0.4718717820547886
cnn,3,3,0.028637294987187027,0.9908338958126738,3.829567204129021,0.3896220704978875
cnn,3,4,0.020406825711584784,0.9944084357838515,3.2153107843746627,0.518506630140617
cnn,3,5,0.021496135650095456,0.9929883818402935,3.3404643442797837,0.4883158192569957
cnn,3,6,0.013452018222712454,0.9957526690034312,3.5586624266179103,0.4970084507600847
cnn,3,7,0.013547420231805603,0.995400675346783,4.147038616120666,0.47457056475357123
cnn,3,8,0.01522113722620859,0.9947317167136044,3.1320262666018506,0.49108253692567416
cnn,3,9,0.009689984065704583,0.9968086648815699,3.323958315989178,0.4991220665076874
cnn,3,10,0.009076252311922236,0.9972994691520695,3.7086507701255242,0.4581589855315345
cnn,3,11,0.013287031714340657,0.9960692507672944,3.916424898052553,0.43434924504205547
cnn,3,12,0.010656404456087676,0.9965427248499714,3.32689244155403,0.4428680218353421
cnn,3,13,0.005987091410351861,0.9979882415340805,3.7018271577257043,0.5255869407764832
cnn,3,14,0.009417746916314793,0.9972052680660971,3.9424693748940065,0.5066554350998795
cnn,3,15,0.003805272487235044,0.9988533516792647,4.357254253878908,0.41093399411046466
cnn,3,16,0.003421262449213943,0.9990700833654372,4.289048281653854,0.4576870285367018
cnn,3,17,0.006658038759379119,0.9975409966172885,3.347585411496847,0.5376313529123987
cnn,3,18,0.005141184238419512,0.998095173990328,5.572874121353786,0.4985822857849002
cnn,3,19,0.006872993998944915,0.9984907270006839,4.737485251982591,0.4409109123749646
cnn,3,20,0.007837502558828015,0.9972098668836442,4.2227541237441555,0.4444759684759685
cnn,3,21,0.00995625992497177,0.9970827374658969,4.110885786158296,0.4688372982621349
cnn,3,22,0.007785492849157053,0.9970972854356782,5.0097641679423175,0.4538655645975907
cnn,3,23,0.004566950592651852,0.9991394886723627,5.181045608300329,0.45334275794406514
cnn,3,24,0.007093655289797844,0.9975158176255747,3.5398512027055062,0.505045602182857
cnn,3,25,0.00578517506210985,0.9985282541500058,4.889518320762886,0.4767412848589319
cnn,3,26,0.003317063081605796,0.9987581004191209,5.135936318040948,0.4663633877620806
cnn,3,27,0.0029937204285178025,0.9988721152539256,3.6293261724036574,0.47076456441162323
cnn,4,1,0.21181737214870366,0.9288160514481779,4.864339647289199,0.3352473835232456
cnn,4,2,0.04341760071385142,0.9877611132548108,2.474001299250681,0.542337994062132
cnn,4,3,0.036215546197862304,0.9870027276633748,2.0207858519034327,0.5481181152363418
cnn,4,4,0.02802366590269595,0.991596687100533,2.1453805009130096,0.5586256655222172
cnn,4,5,0.016840209414486104,0.994932521135825,3.2394533653301485,0.48222904626845514
cnn,4,6,0.01989408437513653,0.9927251338065833,2.988314859335606,0.39321143643803746
cnn,4,7,0.010809684365218251,0.997074247204702,2.103567865977198,0.6278189175356662
cnn,4,8,0.015451044224872817,0.9950164457583965,3.5934913228066705,0.49969981897321797
cnn,4,9,0.014271413275616747,0.994594020323769,3.4222976197283805,0.39244382009160333
cnn,4,10,0.01218286026265438,0.9957721613902599,2.63207543179949,0.486105690970223
cnn,4,11,0.01323215993491743,0.9951045723346867,4.7335701847199,0.4231183521823916
cnn,4,12,0.005397786716767246,0.9983034822635822,3.165265481208371,0.42459736942495563
cnn,4,13,0.010323198487792227,0.9961373853873439,3.709294494519883,0.5162721218755701
cnn,4,14,0.009330541688054878,0.996717800612345,2.9662689860151596,0.6193281631705276
cnn,4,15,0.006800106995158669,0.9975526037492494,2.6817858235554475,0.568847666199883
cnn,4,16,0.014464748084918797,0.9953016295047217,3.6122102125022684,0.38829604987240457
cnn,4,17,0.00876368624750011,0.9971054899253545,2.688817977225969,0.6810444048744541
cnn,4,18,0.007685047883235001,0.9978901518155875,2.2723088709203654,0.5240375251458995
cnn,4,19,0.012948705949149045,0.9946407830581148,4.398903675066619,0.34530159677942923
cnn,4,20,0.00552882583266503,0.9984130480211388,2.1709393605982616,0.678027045022119
cnn,4,21,0.004927913532655827,0.9981070602573592,3.203205250996648,0.6107151446437161
cnn,4,22,0.0067135612011994085,0.9975838464699018,4.189408905586455,0.5071738082206063
cnn,4,23,0.005736836520053046,0.9982911380689484,5.334093976538098,0.39410596701237094
cnn,4,24,0.005530192608073715,0.9980426693246184,3.092712397698622,0.6098697507564502
cnn,4,25,0.00280736921021728,0.9987385694747495,3.069271113665971,0.5602791046756564
cnn,4,26,0.006434988028694476,0.9978576387673112,2.057733870905489,0.6507919625530464
cnn,4,27,0.008674942568433066,0.9972583250162913,2.962480367850288,0.5606338425303943
cnn,5,1,0.19792170543506696,0.9308499651162818,1.3109452781494662,0.5462137099243622
cnn,5,2,0.0472369152368938,0.9841150559323536,2.6910886458747156,0.4412736861124884
cnn,5,3,0.029447192754341704,0.9907208450126775,3.044108588943723,0.5406395980556263
cnn,5,4,0.032856437618645,0.9894039278253414,3.323765944984041,0.45704637562267986
cnn,5,5,0.019621631709733512,0.9937274662613117,3.2721466576544813,0.5749989036190889
cnn,5,6,0.014523402979927588,0.9956399029556563,2.146379046419638,0.5852513903364475
cnn,5,7,0.016541526650086024,0.9948120064035882,4.882621294411345,0.42225627452346126
cnn,5,8,0.015513213922498404,0.9942055754348978,3.384558030185156,0.4922657615313386
cnn,5,9,0.0125317396774324,0.9959528141444641,2.8961960511876286,0.6011067368958274
cnn,5,10,0.014375266046415432,0.9953788076709591,3.8307068074444404,0.5111017711119231
cnn,5,11,0.011616573201784882,0.9961815907944097,2.7082000921231644,0.5205774794632217
cnn,5,12,0.010987928729996812,0.9964557191653669,2.9839834684606785,0.609755936597838
cnn,5,13,0.012710132141475315,0.9964113201882577,1.9639772242417348,0.5636346990263891
cnn,5,14,0.009157102247845725,0.9970745480577156,3.766331554227119,0.5753219958535775
cnn,5,15,0.008509180900548963,0.9973035364285284,3.405924591916849,0.5972886455895079
cnn,5,16,0.006358677492202703,0.998432475547914,3.5984063290101465,0.6323851325871722
cnn,5,17,0.007281870331825659,0.9972715353750776,3.8081952132568038,0.5149270361595789
cnn,5,18,0.01565963127198393,0.9942373647674815,4.1756673145146435,0.637299136567786
cnn,5,19,0.00604037376097399,0.9977495386882301,3.345874336355264,0.6374355790076822
cnn,5,20,0.008513735071524288,0.9967814517195674,3.7830329670232183,0.6125271740791735
cnn,5,21,0.008679349031023574,0.9969018272855023,3.7224463134602366,0.5865368770767407
cnn,5,22,0.0032247226969340944,0.9989992768152849,3.4357035100581954,0.6166056050526039
cnn,5,23,0.008464701594770052,0.9968695086507506,3.7294053205966717,0.5572614129365597
cnn,5,24,0.0059089248706653665,0.9983806596438035,3.847677359600772,0.6230860555296347
cnn,5,25,0.0057550102067864895,0.9980432701889798,3.554969266729812,0.6124352141363555
cnn,5,26,0.00747610815109874,0.9979102849785194,4.639893820464554,0.6215473675249394
cnn,5,27,0.008102576026097248,0.996806035846017,5.032724906729406,0.5769001217663079
cnn,5,28,0.003725862912822246,0.9992605838208495,3.6003916079241343,0.5455495911020446
cnn,5,29,0.006419859426202595,0.9975205503174173,2.6925251016978233,0.5219314612978245
