model,fold,epoch,train_loss,train_balanced_accuracy,val_loss,val_balanced_accuracy
cnn,1,1,0.39815918985725374,0.8567023111155296,1.7783834581427715,0.5505647491463095
cnn,1,2,0.09867485221330971,0.9728139218394832,1.5320115758873083,0.6157473075912793
cnn,1,3,0.06500578334540591,0.9801919178490284,2.1576433374875172,0.682184134489099
cnn,1,4,0.042120973420755346,0.9863690894406895,1.6679128659341265,0.6463159968479117
cnn,1,5,0.03462035705645879,0.9903318017638029,2.3947855678647207,0.5025479380089309
cnn,1,6,0.029810151573479927,0.9912394430824031,2.7872801200582593,0.6667914368268978
cnn,1,7,0.030842581417324932,0.9889929072742235,1.8841565275455223,0.5972944575781455
cnn,1,8,0.029633941634218824,0.9892572477447495,2.2178455712821554,0.6639939584975046
cnn,1,9,0.018165037598616134,0.9952804158919114,2.1498863514485387,0.5976096664039926
cnn,1,10,0.017175279517320542,0.9942587840483618,2.9020764156028984,0.6807197268190176
cnn,1,11,0.018925919701289314,0.9942420114994611,3.5302149706663735,0.6457381140005253
cnn,1,12,0.016576007948786765,0.9939206757664603,2.811784934128328,0.5499737325978461
cnn,1,13,0.017053392534812032,0.993843883838235,2.7162250792333746,0.6495731547149987
cnn,1,14,0.01496710333950157,0.9946003360351616,2.9836975289166303,0.6571907013396375
cnn,1,15,0.010923558852771593,0.9964317618391902,2.2769501794348743,0.6380351983188862
cnn,1,16,0.009764130629137495,0.9978472384629707,2.369869015071612,0.5536905700026268
cnn,1,17,0.008271024797392409,0.9968466620493169,2.7382071160656563,0.5853427895981088
cnn,1,18,0.011668608885052228,0.9946947396883846,4.844885873770502,0.6136262148673496
cnn,1,19,0.01478050637705064,0.9955809059890405,2.6634351984214257,0.6482335172051484
cnn,1,20,0.012576289975313133,0.9959028711041139,4.428410925404237,0.3906422379826635
cnn,1,21,0.01564072993585782,0.9950722315077632,2.758798794457963,0.5007617546624639
cnn,1,22,0.0061521826307800315,0.9983195535236208,2.7174058517934205,0.6787365379563961
cnn,1,23,0.012137938987042046,0.9962242068371147,2.7111555766947704,0.6515563435776203
cnn,2,1,0.35331600334208746,0.8642656586555363,1.933533391465985,0.4055555555555556
cnn,2,2,0.07253119911138828,0.9815290455627829,2.5988053711338175,0.4537037037037037
cnn,2,3,0.04244655992190998,0.9892880022684422,5.068826854090353,0.45092592592592595
cnn,2,4,0.038974281665510854,0.9885848325221768,3.3866658210754395,0.46851851851851856
cnn,2,5,0.024967997873990008,0.9934264197891918,3.6308361390295127,0.4518518518518519
cnn,2,6,0.02034823103637721,0.9952551978724501,3.948440827705242,0.3268518518518519
cnn,2,7,0.021745078216414325,0.9936315650847733,4.277499740352182,0.33425925925925926
cnn,2,8,0.019611189323208798,0.9952864273457317,6.685872930482341,0.4518518518518519
cnn,2,9,0.027461695911076205,0.9903282010540954,4.331920004208062,0.3833333333333333
cnn,2,10,0.018415846364223398,0.9967278654426036,4.314555990144059,0.412037037037037
cnn,2,11,0.022722691905913122,0.9908850147488089,4.114950437954178,0.37777777777777777
cnn,2,12,0.028044929503812453,0.9944060780055478,4.021281900156842,0.34722222222222227
cnn,2,13,0.022269990898516532,0.992204193364732,4.699417850692515,0.3055555555555556
cnn,2,14,0.009693182325505544,0.9967590949158853,5.232806552780999,0.3972222222222222
cnn,2,15,0.01386564365473952,0.9956890120513031,5.098410825541726,0.3314814814814815
cnn,2,16,0.009202036064771863,0.9978164567979895,4.97121625220472,0.39629629629629637
cnn,2,17,0.011248612552802885,0.9971539737358649,4.954388960435258,0.3194444444444445
cnn,2,18,0.006506748728022033,0.9983763672123231,5.572172950677298,0.45
cnn,2,19,0.010897516018247608,0.9971680401126957,7.180946786937959,0.43703703703703706
cnn,2,20,0.007425645212900306,0.9980559282864728,6.63334496476584,0.4694444444444444
cnn,2,21,0.01254969338464994,0.9981540588202907,6.967500141101104,0.47962962962962963
cnn,2,22,0.018195064258123658,0.9941353770437827,4.699214900448849,0.5037037037037037
cnn,2,23,0.011312972625847368,0.9964527223668657,5.634778983504684,0.4351851851851852
cnn,2,24,0.01588853010392855,0.9944201443823785,5.171153484947151,0.4425925925925926
cnn,2,25,0.004291367824435628,0.9988024755055845,5.599765842821863,0.4388888888888889
cnn,2,26,0.0031397951215694775,0.9992426501756765,5.1025773801564895,0.37592592592592594
cnn,2,27,0.0038347534156715625,0.99928468225417,5.76390981387209,0.412962962962963
cnn,2,28,0.002178537639422127,0.999735659529474,5.285640917345882,0.39814814814814814
cnn,2,29,0.002588276060039509,0.9996267263904443,5.967105475123282,0.39444444444444443
cnn,2,30,0.001972266877545245,1.0,7.0769360788442475,0.4166666666666667
cnn,2,31,0.0077518887476169486,0.9965132629361628,7.447106428058059,0.3333333333333333
cnn,2,32,0.005059327192429919,0.9989891123103624,7.734629715151257,0.3361111111111111
cnn,2,33,0.005755246842104848,0.9977387531322414,5.634756245496505,0.3064814814814815
cnn,2,34,0.0031828515936397775,0.9994400895856663,5.99365811470758,0.3314814814814815
cnn,2,35,0.004487891158302003,0.9985381350350585,6.542215331380376,0.3333333333333333
cnn,2,36,0.0024236359928951202,0.9987916729003725,7.769011838768644,0.4509259259259259
cnn,2,37,0.003630494373982611,0.9992534527808884,6.727812902901658,0.38981481481481484
cnn,2,38,0.007750404286784592,0.9975164447402088,6.067838691138335,0.3175925925925926
cnn,2,39,0.012088715976348724,0.9962055449927906,7.213929024904415,0.38981481481481484
cnn,2,40,0.012221437714777914,0.9968476011868453,6.504924894565785,0.2972222222222222
cnn,2,41,0.0053880700108878115,0.9983343351338295,7.344879501754487,0.34351851851851856
cnn,2,42,0.00244754416638758,0.9992534527808884,7.019202081831517,0.2759259259259259
cnn,3,1,0.3872424651797001,0.8642800180293593,0.8242148344808196,0.6236021339899457
cnn,3,2,0.10767146510860094,0.9690335091047743,1.4253988105779605,0.4996178311275264
cnn,3,3,0.0732339368846554,0.977673414301642,1.5339423631155082,0.5423925310351904
cnn,3,4,0.05324833483721774,0.9864828359488625,1.9377249072768503,0.6711603570329331
cnn,3,5,0.05395029056100891,0.9801886186227633,1.616748975147041,0.5235508361547142
cnn,3,6,0.034011069969095004,0.9915858767608077,2.0064895833725287,0.5618934030983892
cnn,3,7,0.02700914709533278,0.9925661643592364,2.6996152396008,0.3911870319072535
cnn,3,8,0.03980192895844364,0.989449227339312,3.5059180475123553,0.37556171129578325
cnn,3,9,0.04381247951487939,0.9879706490970159,3.2130814313318763,0.4044321329639889
cnn,3,10,0.04755154514882284,0.9835723332197132,1.7662292714476255,0.6053426695393455
cnn,3,11,0.02505509214601121,0.9937749110469123,3.830257596386033,0.3470349851236278
cnn,3,12,0.028242333034107173,0.9896776864285592,2.1912755294428115,0.6122011901097774
cnn,3,13,0.017772989028330462,0.9947609297545071,1.6205165741567145,0.6724376731301939
cnn,3,14,0.013929493049139497,0.996250970215136,2.6139210493947402,0.6146378372832667
cnn,3,15,0.021567016567412514,0.9931150623743338,2.050529332829779,0.5929978454909203
cnn,3,16,0.02000539860835908,0.9931621659488731,2.4227614604577656,0.5173976608187134
cnn,3,17,0.017802498684166213,0.9946469251194318,2.7464540061384963,0.4988534933825792
cnn,3,18,0.0198814993200358,0.9942846639091122,2.595995589051737,0.4830255463219452
cnn,3,19,0.04096327269754301,0.9840182389989716,2.75388917013672,0.5315404739919974
cnn,3,20,0.03530034442888931,0.9923799773735548,1.8751575587667133,0.6112650046168052
cnn,3,21,0.032398899365664244,0.9894967807329477,1.832671453095938,0.5596593823740638
cnn,3,22,0.011541425404273189,0.9976296101991874,1.3354422274143862,0.7042115522724942
cnn,3,23,0.010045085474512935,0.997178423129859,1.8975560848569286,0.5931594336718992
cnn,3,24,0.010815450085311358,0.9971115220693229,1.7768840669894679,0.6494152046783626
cnn,3,25,0.010928129641139933,0.9955325557496857,1.9186955836752755,0.6271827228890942
cnn,3,26,0.014771618448139633,0.9951813069386022,3.993593791845426,0.4535292910639171
cnn,3,27,0.014459525661928077,0.9951452157632992,1.7759291896206961,0.6477608494921514
cnn,3,28,0.018874830723899113,0.9966744013768255,2.8315117755951786,0.5831845696111624
cnn,3,29,0.030003253248035506,0.9904405273369769,1.554091255801922,0.6457422796757976
cnn,3,30,0.009740901167298524,0.9971255884461536,1.9493517915801826,0.5715450907971683
cnn,3,31,0.014159792494991472,0.9983092563577628,2.3739096423409447,0.4930799220272905
cnn,3,32,0.01631530974089121,0.9941486344755646,1.5033977436168893,0.6300887452549503
cnn,3,33,0.009507091716547551,0.9963011277672695,2.6174231298786057,0.5572355596593824
cnn,3,34,0.009322303244558638,0.9973650599346371,1.8187057153734478,0.5772853185595568
cnn,3,35,0.014226116306067875,0.9963429500517389,2.1953445678778425,0.5808094798399508
cnn,3,36,0.014572750970994372,0.9955268246405193,2.0425659560223437,0.6161895967990151
cnn,3,37,0.006140055906311877,0.9981226195529848,3.0768899935022835,0.5243895557607469
cnn,3,38,0.005045747136052971,0.9984069673035321,2.4685326766554785,0.5689006873909921
cnn,3,39,0.008389515058073671,0.9976965112597235,4.06396301469794,0.4383092233507746
cnn,3,40,0.03140715027461388,0.9902015056675899,5.295702661633592,0.47584128449779417
cnn,3,41,0.029113350785841107,0.9918729016429267,2.083315804297454,0.556976505591464
cnn,3,42,0.007075780872876819,0.9995488129306719,1.3180159269271,0.6532112444854827
cnn,4,1,0.37006962144604094,0.8664390937187939,1.546774825929476,0.4875201288244766
cnn,4,2,0.1087126171359649,0.9674862818502445,3.1803028510035203,0.35269726247987115
cnn,4,3,0.06463479266072122,0.9803454632170672,2.3557261364357416,0.5504428341384863
cnn,4,4,0.04663303408485193,0.9869601019968114,2.843850477185415,0.3973429951690821
cnn,4,5,0.042170977941714226,0.9857858156526236,2.7554129206000484,0.4752415458937198
cnn,4,6,0.03465269453322085,0.9903641081313803,2.2479893337183157,0.5285426731078905
cnn,4,7,0.02996461113126805,0.9908072368023615,4.11807282247732,0.34287439613526566
cnn,4,8,0.026733406008301805,0.9897982011599468,2.771600810955978,0.5441626409017714
cnn,4,9,0.028052358330191613,0.9897764410641581,2.8542699318565536,0.46916264090177134
cnn,4,10,0.018430694483686238,0.9938415185364556,2.8185888133640837,0.47580515297906606
cnn,4,11,0.016805535628988694,0.9952318191114801,3.005131892163903,0.5103462157809985
cnn,4,12,0.020057889529450153,0.9938260526018629,3.1811392996015684,0.46296296296296297
cnn,4,13,0.013165845749160956,0.9954854996955254,3.093039095803752,0.47930756843800326
cnn,4,14,0.01576810089295927,0.9944436037480141,2.9817630991706965,0.5174718196457326
cnn,4,15,0.013307747135583598,0.995152561002605,4.430373757770665,0.3960547504025765
cnn,4,16,0.015264454524255528,0.9936936622051863,3.847454956247804,0.405072463768116
cnn,4,17,0.01664487876495024,0.9932335794865285,3.932450130273055,0.43421900161030597
cnn,4,18,0.021812151644945307,0.9909971252121245,3.5622282044727167,0.4456924315619968
cnn,4,19,0.015013597058490492,0.9939473427892315,4.169012390412861,0.44303542673107893
cnn,4,20,0.008396110614278139,0.9985038751721996,4.2701309133255325,0.4243156199677938
cnn,4,21,0.006783169957942356,0.9985459072506933,3.347623691554892,0.47282608695652173
cnn,4,22,0.009051551181115568,0.9970343164883001,3.089664903115,0.5585346215780999
cnn,4,23,0.01656997361429743,0.9948882205320789,2.946490756141969,0.5021336553945249
cnn,4,24,0.009906116713178703,0.996056212715071,3.8474903494631043,0.47238325281803545
cnn,4,25,0.006284554567845099,0.9983187928105487,5.928267719991781,0.4034219001610306
cnn,4,26,0.0051592128046020385,0.9984463771591132,3.378199381618121,0.5477455716586151
cnn,4,27,0.010198849339380664,0.9970140445055952,3.857426739191216,0.49037842190016107
cnn,4,28,0.013964483276000604,0.9941744572293759,3.5822596533908064,0.5349838969404187
cnn,4,29,0.009395199054751384,0.9974199471461948,3.3093958833201857,0.532487922705314
cnn,4,30,0.007291639344657597,0.9969502523313128,4.461434456655307,0.4815217391304348
cnn,4,31,0.015506260784702765,0.9959301164795903,4.171055266724849,0.4480273752012882
cnn,4,32,0.011730535634985875,0.9957546462141634,3.2834764273060424,0.5485104669887279
cnn,4,33,0.0057093249279555145,0.9982395347016736,3.752663101553489,0.5096215780998389
cnn,4,34,0.010185713825866026,0.9970560765840887,4.740978465571576,0.45350241545893716
cnn,4,35,0.008394351525734797,0.9962833271552155,5.0074664295827285,0.42459742351046703
cnn,4,36,0.007856374137344784,0.9971135745971752,5.05390229103795,0.4249194847020934
cnn,4,37,0.003308803561986469,0.9984463771591132,3.615399537513105,0.5425925925925926
cnn,4,38,0.020660332582324022,0.9922830896474569,3.922577929153193,0.4880434782608696
cnn,4,39,0.018744848318066522,0.9941637973428952,4.1351150812357025,0.4964975845410628
cnn,4,40,0.012469561703493616,0.9958025321310258,3.5633829273821287,0.5064009661835749
cnn,4,41,0.0022227707926224236,0.999735659529474,3.468734933429905,0.5128019323671498
cnn,4,42,0.004915116654529601,0.9981602765927985,4.074750021392119,0.5086553945249598
cnn,5,1,0.3502547579507033,0.8734728077277424,1.0375148132029965,0.581005682207161
cnn,5,2,0.09708176677425702,0.9733307139840307,3.078068271800297,0.33088929965085234
cnn,5,3,0.062481492730202495,0.9815429611192372,2.7510359484731293,0.47829465324844245
cnn,5,4,0.06058789849695232,0.9789774049319635,2.1644903115771057,0.4170842746628329
cnn,5,5,0.043979219109233886,0.9864117718855286,1.9457280425133636,0.5714657356062163
cnn,5,6,0.030908327957580764,0.9906151661092991,2.4847784161435382,0.3491579379749435
cnn,5,7,0.016151879225961036,0.996338080840293,2.7834779023235203,0.45805093448346684
cnn,5,8,0.02511408408517363,0.9922135199965703,2.7892632439451397,0.4854795645923187
cnn,5,9,0.021408138484090428,0.9925000376964519,2.935267957537275,0.42375231053604434
cnn,5,10,0.031274632702547094,0.9896031255476939,1.9827260060130425,0.49165126309303764
cnn,5,11,0.02064742254464094,0.9926419917478994,4.390657932004766,0.38212158554117887
cnn,5,12,0.01637175215528933,0.994129951919423,2.8164589375373263,0.384774423221743
cnn,5,13,0.01329352800708471,0.9954285101809098,3.424361005248698,0.44589238036557816
cnn,5,14,0.013283328132011876,0.9959147883870996,4.143297100345088,0.4317587458068049
cnn,5,15,0.009667141919824105,0.9969768465084426,1.955674397859404,0.5297425891695763
cnn,5,16,0.01022800629628667,0.9967034319202225,2.564622052303297,0.4409735058533579
cnn,5,17,0.01362683535995462,0.9953391433903493,5.60015134425104,0.3259567330731841
cnn,5,18,0.028350868949739916,0.9906336233333374,3.356332873130428,0.4890223865270076
cnn,5,19,0.010099153454238721,0.996537841346601,2.6524233666561816,0.4291743684534812
cnn,5,20,0.01047616452641604,0.9965773254958267,4.258392547284184,0.3654617649072362
cnn,5,21,0.016036150112955106,0.9944216489174403,3.6216345941616876,0.3611693023892654
