model,fold,epoch,train_loss,train_balanced_accuracy,val_loss,val_balanced_accuracy
cnn,1,1,0.4068246192692481,0.852547643237585,2.0784909035964794,0.5975308641975309
cnn,1,2,0.055296624247368774,0.9838516583321238,3.547693266998405,0.6005291005291006
cnn,1,3,0.0371071397466105,0.9878320072833788,2.6935703125215946,0.6519694297472075
cnn,1,4,0.048989976147794614,0.9842290218017565,3.1527656099521746,0.6065843621399177
cnn,1,5,0.011626804608145979,0.9975563736162241,3.361287381684824,0.5839506172839507
cnn,1,6,0.02013633527313527,0.993424727423065,3.23085709806291,0.5164609053497943
cnn,1,7,0.017821794544999516,0.9959440024277929,2.9124732068542665,0.574485596707819
cnn,1,8,0.020619637297151956,0.99259347222772,3.764125957366662,0.6
cnn,1,9,0.012177149554415722,0.9955912687417259,3.2989321219743775,0.5390946502057613
cnn,1,10,0.009997196171940401,0.9957927051858889,3.9240052632483806,0.6481481481481481
cnn,1,11,0.013350016118153887,0.9947600135463809,3.9808607068260975,0.5296296296296297
cnn,1,12,0.009289399514188714,0.997279288551109,3.9864426282627075,0.5576131687242798
cnn,1,13,0.010192355591477947,0.996019651048745,4.645829909316341,0.6644620811287477
cnn,1,14,0.02298950055350379,0.9912326766857107,4.51872598070457,0.6758083480305702
cnn,1,15,0.009307172239656662,0.9974807249952719,3.8340933342325574,0.5411522633744856
cnn,1,16,0.004663283010269935,0.9985389260534729,3.3244163431737794,0.6098765432098766
cnn,1,17,0.008508327668958785,0.997556373616224,4.401287625942627,0.6213991769547325
cnn,1,18,0.003993486417026904,0.998740362497636,4.353002568498192,0.5711934156378601
cnn,1,19,0.017434899015478147,0.9933490788021128,5.767359409607898,0.605761316872428
cnn,1,20,0.0050051274274008715,0.999017447562751,4.458651675517387,0.6308641975308642
cnn,1,21,0.010349394638303904,0.996649469799927,4.915561639624702,0.49176954732510286
cnn,1,22,0.0149526697373919,0.9962210874929079,5.262637417612957,0.651440329218107
cnn,1,23,0.00441812822134228,0.998740362497636,5.454506291091053,0.6117871840094061
cnn,1,24,0.005369550652101249,0.998186192367406,4.06619131880149,0.5954732510288067
cnn,1,25,0.0038586423343545417,0.998740362497636,5.555516171720385,0.6303057025279247
cnn,1,26,0.0038902258337441607,0.999093096183703,5.023479400495443,0.5806584362139918
cnn,1,27,0.009115695822791018,0.9964981725580229,3.740009775267803,0.6617283950617284
cnn,1,28,0.009192986464468143,0.9986647138766839,4.392738188642118,0.5893004115226338
cnn,1,29,0.010360072791158505,0.9966996090021859,4.229539452049056,0.5259259259259259
cnn,1,30,0.00978299204864728,0.9965236819767159,4.351535301852799,0.5020576131687243
cnn,1,31,0.013200146925471215,0.9968509062440899,3.904364664401281,0.6567901234567901
cnn,1,32,0.005990577998934746,0.998311980190617,5.030066295866308,0.6889770723104056
cnn,1,33,0.0038777891088533785,0.9994458298697699,4.980463058808301,0.6839506172839506
cnn,1,34,0.0014181046968639477,0.999722914934885,5.131580342253879,0.6518518518518518
cnn,1,35,0.0024439874126931773,0.999722914934885,5.403488425851837,0.5699588477366255
cnn,1,36,0.004235537681995186,0.9983876288115688,3.9228958354922066,0.6120223398001176
cnn,1,37,0.005456517406597863,0.997833458681339,5.389854908641853,0.6098765432098765
cnn,1,38,0.010495027303332068,0.9974050763743199,4.72827798811921,0.6119341563786008
cnn,1,39,0.0024360431626828547,0.999722914934885,4.9643898936143795,0.6308641975308642
cnn,1,40,0.0014239920020893047,0.999647266313933,5.514013396048893,0.6069958847736626
cnn,1,41,0.00033137790947622897,1.0,5.5723345040722725,0.5979423868312758
cnn,1,42,0.005724891406718021,0.998740362497636,7.16489680307627,0.6473251028806585
cnn,1,43,0.009282645092228158,0.9959440024277929,5.403696023636366,0.5304526748971193
cnn,1,44,0.006235604663729224,0.997556373616224,5.178891636091651,0.6325102880658436
cnn,1,45,0.008582260752110911,0.996926554865042,5.055255129644918,0.7000000000000001
cnn,1,46,0.004343996456417905,0.9977578100603871,4.223445945956923,0.651440329218107
cnn,1,47,0.019940352957118445,0.9931977815602089,4.297497215556256,0.6473251028806585
cnn,1,48,0.013577951505438475,0.9949614499905439,4.0047739256343,0.6247795414462081
cnn,1,49,0.004508697318613617,0.999093096183703,4.540236386960078,0.697119341563786
cnn,1,50,0.001677281989252395,0.9993701812488179,4.833563093953688,0.6716049382716051
cnn,2,1,0.3567214179976085,0.8642335233052997,2.9315256474976557,0.2938271604938272
cnn,2,2,0.06942055325417482,0.9793841818510081,4.075353029039171,0.2938271604938272
cnn,2,3,0.03647601051428884,0.9880341775836379,3.589743258441902,0.35185185185185186
cnn,2,4,0.022189424197986415,0.9923740857723452,4.461052138772276,0.36419753086419754
cnn,2,5,0.01607142532299532,0.9934652807102301,4.673343123159842,0.4419753086419753
cnn,2,6,0.01283031908828842,0.9962433071551158,6.618570965421559,0.37777777777777777
cnn,2,7,0.013678220457897867,0.9943251934035725,5.012230664800082,0.4444444444444445
cnn,2,8,0.021187958893241342,0.9926088663385425,6.035799036791295,0.28641975308641976
cnn,2,9,0.006759569394151973,0.9981524980030212,6.05610685468088,0.38765432098765434
cnn,2,10,0.00561501457702162,0.9982417561516481,6.013294504895622,0.3432098765432099
cnn,2,11,0.018476943302789785,0.9944617929175047,7.012827078170247,0.23703703703703702
cnn,2,12,0.00725131348000789,0.9965816933555615,5.614391262737321,0.3679012345679012
cnn,2,13,0.0025239837150084644,0.9997508719481814,6.242131246755153,0.2740740740740741
cnn,2,14,0.007349715260922316,0.9980345448831515,6.18788060579035,0.35308641975308647
cnn,2,15,0.007761379589264272,0.997447030630887,6.672692550387647,0.3654320987654321
cnn,2,16,0.012294525067716808,0.9959798316176759,6.588377856030876,0.3024691358024691
cnn,2,17,0.010379426506221638,0.9965960408411828,7.199724315125265,0.21358024691358027
cnn,2,18,0.004134897424310767,0.9979452867345243,7.00337159898546,0.18888888888888888
cnn,2,19,0.007169506105409963,0.9977764939276947,11.288491591851297,0.3135802469135803
cnn,2,20,0.0034708684242358095,0.9990927459413524,7.048695451241953,0.27037037037037037
cnn,2,21,0.008131511535817275,0.9965727704519235,7.218550111321706,0.45555555555555555
cnn,2,22,0.00673367378032108,0.9977997643169542,5.672961148343704,0.4172839506172839
cnn,2,23,0.0018308636292682216,0.9997508719481814,6.927346727923479,0.41234567901234565
cnn,2,24,0.0050747399518138656,0.9983310143002754,7.520907067873136,0.337037037037037
cnn,2,25,0.010276508025911135,0.9964361709379913,5.2971947799494234,0.3802469135802469
cnn,2,26,0.005686771953657354,0.9976398944137626,5.9960901576795695,0.40617283950617283
cnn,2,27,0.0022486657837043353,0.9993981382621143,6.4774517865828525,0.3814814814814815
cnn,2,28,0.0017208657137163436,0.999647266313933,7.7976651053369785,0.3432098765432099
cnn,2,29,0.00511336594616427,0.9986507541066585,6.441606370313668,0.36049382716049383
cnn,2,30,0.005559105174461834,0.9979452867345243,7.198720789544376,0.3518518518518518
cnn,2,31,0.0009093313625299677,1.0,7.382974528719061,0.3
cnn,2,32,0.000438589294605766,1.0,8.079097719030615,0.3938271604938271
cnn,2,33,0.001849180199000911,0.9991490102102958,8.077378946689912,0.3703703703703704
cnn,2,34,0.0053222998104108235,0.9985471484724101,9.600420666449232,0.3962962962962963
cnn,2,35,0.006723962323013841,0.9969817684069336,9.32104293593654,0.38518518518518513
cnn,2,36,0.012086886124568092,0.9952797888275251,7.5385598200338855,0.24320987654320989
cnn,2,37,0.012811552415126983,0.9949743965067633,8.794033896975955,0.35555555555555557
cnn,2,38,0.008491669471058953,0.997038032675877,8.266227246200044,0.36419753086419754
cnn,2,39,0.001854369469761765,0.9991490102102958,9.167906020011431,0.3432098765432099
cnn,2,40,0.0007812293742175563,0.9997508719481814,8.880532332555747,0.36172839506172844
cnn,2,41,0.001846114024572474,0.9995017438963627,8.951034346326358,0.3592592592592592
cnn,3,1,0.43273419393322515,0.8283297775149912,1.2058596934801267,0.49506172839506174
cnn,3,2,0.08989152669925819,0.9697222007519403,2.0223078932743563,0.619753086419753
cnn,3,3,0.05878835177941958,0.9810520418771906,1.766350152373406,0.5814814814814815
cnn,3,4,0.046971061000523645,0.9829845031143553,2.573088437798566,0.5345679012345679
cnn,3,5,0.04202334666576659,0.9856697730889593,0.7909191389795232,0.725925925925926
cnn,3,6,0.015677021156285994,0.9966433822064881,1.2021359113765806,0.7493827160493827
cnn,3,7,0.026983653081187345,0.9918141408177815,1.5631644876221764,0.7469135802469135
cnn,3,8,0.01582147874845403,0.9949833194104013,0.8445975318197192,0.7037037037037037
cnn,3,9,0.028890857776355708,0.9917765229429008,1.7777688823122946,0.6679012345679013
cnn,3,10,0.022305811112674587,0.9926142909205259,2.3429943214170637,0.6555555555555556
cnn,3,11,0.017548487110953952,0.9942832766202505,2.633267131360409,0.5049382716049383
cnn,3,12,0.017339820339891714,0.9938599311796189,0.7112958127065886,0.7666666666666666
cnn,3,13,0.007054714329757358,0.9975925530484574,1.136828164024203,0.7814814814814816
cnn,3,14,0.015665960625970986,0.9948145266035717,1.2783912754402766,0.745679012345679
cnn,3,15,0.011419079217432095,0.997038032675877,1.3898168258190933,0.7049382716049383
cnn,3,16,0.009909215321273486,0.9965397765722397,1.562710875275266,0.6827160493827161
cnn,3,17,0.008616530620389482,0.9967415632587531,1.7152481867580134,0.7395061728395061
cnn,3,18,0.006480180985555617,0.9982980204205915,1.5624017413017515,0.7777777777777777
cnn,3,19,0.014080599770318962,0.9948323724108478,1.1177525583109764,0.782716049382716
cnn,3,20,0.007730117665598356,0.997038032675877,1.6962191305426344,0.762962962962963
cnn,3,21,0.0161195954947898,0.9947904556275259,1.2469092975785576,0.7296296296296295
cnn,3,22,0.019430302968646278,0.9930749291492824,1.854315513553386,0.6444444444444445
cnn,3,23,0.008794541932317218,0.9966763760861719,1.4136692536487654,0.7419753086419753
cnn,3,24,0.019432900792567452,0.9940287239864487,1.0196160085771326,0.6901234567901234
cnn,3,25,0.005445577589628172,0.9986507541066585,1.0896481006036505,0.7395061728395061
cnn,3,26,0.004344578522072083,0.9984908842034669,1.3297955537541737,0.7049382716049383
cnn,3,27,0.011102447548365518,0.9962343842514777,1.6380320022269268,0.7432098765432098
cnn,3,28,0.020757879192725464,0.9926651306074857,0.9883212675627919,0.7691358024691358
cnn,3,29,0.005682252552265034,0.9988436178895338,0.7715175167354719,0.8074074074074074
cnn,3,30,0.0007114806854288056,1.0,0.7586843147983108,0.7987654320987655
cnn,3,31,0.010872021728883016,0.995937914834354,1.4461441682249918,0.6827160493827161
cnn,3,32,0.008647482855821247,0.9976818111970843,0.9412501491462502,0.7185185185185187
cnn,3,33,0.0072058785314119324,0.9966620286005505,1.9383688256184766,0.6
cnn,3,34,0.003494115070529962,0.9983872785692185,1.9541171734318359,0.6604938271604938
cnn,3,35,0.0049435105029026335,0.9979452867345243,2.0319198847445077,0.6728395061728395
cnn,3,36,0.0034471361870141524,0.9991490102102958,2.597557186878125,0.6123456790123457
cnn,3,37,0.002171825247659371,0.9993981382621143,1.9698894679937642,0.6975308641975309
cnn,3,38,0.005795530882429356,0.9971979025790686,2.0048941063037686,0.7111111111111111
cnn,3,39,0.01496313094314021,0.9953779698797902,1.2998290672859818,0.7320987654320987
cnn,3,40,0.006834322054183974,0.9974943719961923,1.4810640861243236,0.7123456790123458
cnn,3,41,0.012929857113451043,0.9954163883414573,1.6098911526141213,0.6604938271604938
cnn,3,42,0.0077507801014943065,0.9969906913105717,2.039489475565256,0.6469135802469136
cnn,3,43,0.0014833899142113578,0.999647266313933,1.3929893678508618,0.7283950617283951
cnn,3,44,0.005420479397154156,0.9978327581966381,3.373232438209222,0.528395061728395
cnn,3,45,0.001414213834702901,0.9997508719481814,2.8244874880904853,0.582716049382716
cnn,3,46,0.006928914507201176,0.9980488923687728,1.9502693325303269,0.662962962962963
cnn,3,47,0.011154664957654494,0.9950869250446498,3.0667202664558246,0.5901234567901235
cnn,3,48,0.013963269150510839,0.9946216628206962,2.7242002426678265,0.5518518518518518
cnn,3,49,0.004279983878006401,0.9986837479863423,1.2113776157388259,0.7382716049382716
cnn,4,1,0.4084028080485913,0.8500055182263772,3.9208560112156534,0.4188343382141832
cnn,4,2,0.08910534845437018,0.968264139102585,2.5259478398005566,0.4836060867068619
cnn,4,3,0.054396695090334256,0.9807701712814186,2.0794363956760447,0.5636807349985644
cnn,4,4,0.03491201530548041,0.9893558823211176,3.180316308668343,0.49672695951765716
cnn,4,5,0.03110287260390077,0.9897992880405968,2.816395342700497,0.5472868217054264
cnn,4,6,0.014845744789250158,0.9946527304400515,2.836342871599336,0.5314958369221935
cnn,4,7,0.01569876939887466,0.995139849168479,3.619293420927431,0.4934539190353144
cnn,4,8,0.009340039524784292,0.9960989385529263,3.8201003664552236,0.5741889175997703
cnn,4,9,0.024154421422875258,0.9920920570000323,2.6359587059310767,0.599540625897215
cnn,4,10,0.027911408586078323,0.9903435366421052,3.6072389725303764,0.4710594315245478
cnn,4,11,0.014795587804526025,0.9947098603131322,3.2152927986783406,0.5512202124605224
cnn,4,12,0.014847560897671466,0.9944906460652883,4.607224024717868,0.4986792994544933
cnn,4,13,0.01279319383112514,0.9962543144956233,3.4594713285047067,0.5229112833763997
cnn,4,14,0.020685196779187228,0.9920299499031605,4.3021262905862665,0.49333907550961814
cnn,4,15,0.0046797272915478525,0.9977357959771048,3.913710424448079,0.5156187194946885
cnn,4,16,0.006136943381961271,0.9978483245149912,4.570918240035469,0.5036175710594316
cnn,4,17,0.014307746477039028,0.9974393265599809,5.10771652549501,0.5136376686764282
cnn,4,18,0.060482411734074974,0.9824700014066067,3.3298679802953317,0.5291128337639965
cnn,4,19,0.006577192454382644,0.9978626069832615,3.5708512833686967,0.5133792707436118
cnn,4,20,0.008293809999987406,0.998095238095238,4.333449701441763,0.4941716910709159
cnn,4,21,0.0071838424126103835,0.997594702502678,3.8709833320895433,0.5033017513637669
cnn,4,22,0.006847260960447394,0.9972134038800705,4.519093830643464,0.4966982486362331
cnn,4,23,0.00535535394461402,0.997792060246048,4.168627854601846,0.5174562159058284
cnn,4,24,0.015454803453246072,0.993503857348438,5.436665290967205,0.48975021533161067
cnn,4,25,0.013896317112084944,0.995386762748726,3.894632288480553,0.5005742176284812
cnn,4,26,0.008587155601348134,0.996889235130544,4.860862316212565,0.48222796439850707
cnn,4,27,0.0033690481624239045,0.9990123456790124,3.7999330428525777,0.5473155325868505
cnn,4,28,0.0032926512291633304,0.998497527618182,5.188250101036248,0.48541487223657764
cnn,4,29,0.0057095164283778935,0.998144793932115,3.6030843894282136,0.611513063451048
cnn,4,30,0.005918856840965566,0.9980599647266315,3.37861614569483,0.5713465403387884
cnn,4,31,0.002558557273116502,0.9988007054673721,3.674435550840299,0.6041630778064887
cnn,4,32,0.003590854576844192,0.999097174884496,3.9939780496758406,0.5652311225954637
cnn,4,33,0.0056444079212046834,0.9989065255731923,4.474350002190472,0.5316681022107379
cnn,4,34,0.009633755792399787,0.9970513195053071,4.821700900875047,0.507751937984496
cnn,4,35,0.009519138041185921,0.9966985858192402,4.780322833071249,0.5089865058857307
cnn,4,36,0.010316028024186491,0.9974888823968578,3.554065350035591,0.6345104794717198
cnn,4,37,0.005799214246647408,0.998144793932115,3.7162741901888103,0.5546368073499855
cnn,4,38,0.01084060320544249,0.9965574923448134,4.270287928080106,0.5219925351708298
cnn,4,39,0.004308066757890369,0.9987444411984289,4.8642927002091,0.5083835773758255
cnn,4,40,0.013333718940216665,0.9962333235952867,5.2216905433021195,0.48171116853287405
cnn,4,41,0.013230464801924371,0.99598641001504,5.214996244437911,0.5703703703703704
cnn,4,42,0.003847615106122025,0.9985537918871253,4.619472322735448,0.5473729543496986
cnn,4,43,0.0013811876135303798,0.999647266313933,4.964390001301632,0.5328739592305484
cnn,4,44,0.006324931782837573,0.9976509667716211,4.189624208549001,0.5525409130060293
cnn,4,45,0.003014510843986871,0.998497527618182,4.961015804748215,0.5704852138960667
cnn,4,46,0.0010037731264386524,1.0,4.111603449217899,0.579787539477462
cnn,4,47,0.007482994276556939,0.996134211921533,4.767380642039435,0.5907263853000287
cnn,4,48,0.007199245480756984,0.9978130511463844,4.380756045219355,0.5766867642836635
cnn,4,49,0.02732703255290345,0.992071066099696,3.939015508600547,0.5279643985070341
cnn,4,50,0.006537155467329433,0.9974888823968578,3.782201599214416,0.5685615848406547
cnn,5,1,0.39374793572899175,0.8496950200846163,1.604730502322868,0.5209876543209876
cnn,5,2,0.08893476816478606,0.9744020633925258,2.0675005674362184,0.3662551440329218
cnn,5,3,0.04897866049534915,0.983938885729147,2.624531085226271,0.4477366255144033
cnn,5,4,0.03588262240644362,0.9883829250784668,2.597940126304273,0.30205761316872426
cnn,5,5,0.04910047024810303,0.9924092222335649,2.981145108540853,0.2806584362139917
cnn,5,6,0.03720618729301564,0.9875201129729283,3.0922984454366897,0.41069958847736626
cnn,5,7,0.020110663132999987,0.9924092222335649,2.764903679777075,0.36049382716049383
cnn,5,8,0.06088890253864948,0.9945910726756857,3.9169433795964275,0.2518518518518519
cnn,5,9,0.05516737730495686,0.9854283232788724,3.1733827850553724,0.471604938271605
cnn,5,10,0.05527717996180096,0.9923776653233712,3.3552232018223513,0.36707818930041153
cnn,5,11,0.0460665067249804,0.9883304895655597,2.7732783999266446,0.40411522633744856
cnn,5,12,0.02931019888359622,0.9875261812978923,3.8609079479288173,0.40740740740740744
cnn,5,13,0.015419196055839112,0.9936020329293725,4.003469723683817,0.40987654320987654
cnn,5,14,0.0031250004466724644,0.9996491228070176,3.5996054634617436,0.4131687242798354
cnn,5,15,0.04447093775061327,0.9991056309842676,2.6406296387425177,0.40823045267489705
cnn,5,16,0.036088885800685,0.9891928236588515,4.723834358409599,0.2979423868312757
cnn,5,17,0.015172827595033953,0.9954330061785108,3.4667142702032017,0.3958847736625515
cnn,5,18,0.015991586518294736,0.9967942797327668,4.24714741801774,0.34814814814814815
cnn,5,19,0.01276785420793435,0.9958469971918805,3.374397948165597,0.4427983539094651
cnn,5,20,0.04710742669502389,0.9961556391671893,4.492356515691305,0.43539094650205756
cnn,5,21,0.02249678760192325,0.9932933909540639,3.1384164229145757,0.40823045267489716
