model,fold,epoch,train_loss,train_balanced_accuracy,val_loss,val_balanced_accuracy
cnn,1,1,0.16341980788244664,0.9405221955234356,4.216645604565659,0.4270517821882389
cnn,1,2,0.04090659317669108,0.9858803420017958,2.903135638023965,0.45796481352990853
cnn,1,3,0.02428714944876775,0.99210242710908,3.068840209099856,0.44041706472966385
cnn,1,4,0.020470442110777608,0.9925219102509345,3.018854475675926,0.44191703580611014
cnn,1,5,0.01755307452007513,0.9941270336942593,4.062326932145243,0.43433569153128526
cnn,1,6,0.008808884779420023,0.9970760849402258,3.6140083473870046,0.6089147502873175
cnn,1,7,0.016480607249926008,0.9941557963616049,3.3574875549353695,0.4912884495232253
cnn,1,8,0.013270877460486519,0.9952787787465227,3.8571376706302347,0.4374769898757454
cnn,1,9,0.011545507199557083,0.9958878328114643,3.4511224323078245,0.518781623181976
cnn,1,10,0.0073698430588866855,0.9973090314368981,5.872544557004987,0.34791316436685277
cnn,1,11,0.011943693836308073,0.9962301334941218,3.845434028729224,0.5486230521235992
cnn,1,12,0.007873820368633891,0.9979441479782988,2.9911255521727096,0.5331393612630624
cnn,1,13,0.0093971755014822,0.9966872170462505,3.5048259068260386,0.5487698329292564
cnn,1,14,0.009878845009894839,0.9960587515802265,4.110299222505758,0.5025479113351038
cnn,1,15,0.005385742429912733,0.9982600017192778,4.6856720490908215,0.4287808207209476
cnn,1,16,0.006625704610594171,0.997298586836859,6.968703101967818,0.31253894668299975
cnn,1,17,0.009496536972577458,0.9966370233537797,3.4186258911702705,0.46727012795933215
cnn,1,18,0.009706020851297712,0.9970144416775352,4.342915994521757,0.46955570957584847
cnn,1,19,0.00584205720449799,0.9976296836727201,4.6480833466982725,0.41620663159493615
cnn,1,20,0.006005048326515702,0.9981330887127434,6.718333508882017,0.33343272001290286
cnn,1,21,0.005635524797178652,0.9979943416707698,5.363137106984758,0.38890205452836407
cnn,1,22,0.007483321226310197,0.9972431315044116,4.849986617999039,0.39798272760195763
cnn,1,23,0.005543598188474676,0.9983589996688194,5.396557765756177,0.3734777508379144
cnn,1,24,0.004891315909508041,0.9987231945217357,4.622444720417321,0.42729572591862147
cnn,1,25,0.004178326242872654,0.9986734639743983,5.266817185943861,0.5989072747367054
cnn,1,26,0.006914271380838896,0.9975244977929352,3.6213932042728776,0.6298679704524471
cnn,1,27,0.005000068591158131,0.9982898577203994,5.471749651858207,0.4381558619381524
cnn,1,28,0.004148517159906992,0.9989504949132121,3.6592242101524057,0.6487045090777949
cnn,1,29,0.003528659362760557,0.9986038588808448,4.994801488738536,0.418814851049103
cnn,1,30,0.005228127552334054,0.9984475530183222,4.564898889558842,0.5700212559516064
cnn,1,31,0.004795119869451336,0.9985664255140797,4.866245259890731,0.43552999669448106
cnn,1,32,0.006020212271184805,0.9981842086954811,3.868652809505769,0.597461727041716
cnn,1,33,0.004532839084509431,0.9984470898731889,4.874628154399689,0.4753237053171895
cnn,1,34,0.002679873004240181,0.9988998380756078,4.702754251442538,0.4407945092095494
cnn,1,35,0.00257275637357409,0.9991460867230332,5.081610325720996,0.49320859409368323
cnn,1,36,0.005124885432111889,0.9986730008292648,4.420141424651398,0.4749481441498818
cnn,1,37,0.007927350906239968,0.9971712106851912,4.2815362944881,0.4927081460681511
cnn,1,38,0.0026214697991893683,0.9990755553392129,4.018025904377018,0.5838545606211049
cnn,1,39,0.00239204940460129,0.9992327874920023,4.335227254765485,0.5497013514090908
cnn,1,40,0.002187429872678673,0.9994402133372625,4.559752924533954,0.5338885420238458
cnn,1,41,0.007153563844712271,0.9979573714491382,5.758298010325256,0.5418495032915748
cnn,1,42,0.002958335306283772,0.9989192494766903,6.771453544559774,0.40002730627752303
cnn,1,43,0.004795783974494513,0.9986237334270607,5.113279229378745,0.4415392568504723
cnn,1,44,0.001775699103616905,0.9994781098491609,6.1954573185696376,0.43176108180113787
cnn,1,45,0.002100451767541937,0.9989685168788944,5.455393208126964,0.4747212783372648
cnn,1,46,0.004737942130617219,0.9984290679075064,6.401230811451473,0.4038886154470645
cnn,1,47,0.004539805737126788,0.9984669644194047,5.361323125421126,0.5299853788118996
cnn,1,48,0.0017611188818356883,0.9992829811844732,7.331099137226836,0.3602386997261798
cnn,2,1,0.1640586903541992,0.9391341070814511,1.003206336748057,0.7161633444137645
cnn,2,2,0.028245417040547106,0.9903968296288336,1.37270436856236,0.675519808461965
cnn,2,3,0.018323674538327603,0.9942718739902379,1.2683218907231595,0.7485414251047243
cnn,2,4,0.014545424869323038,0.9949236981663937,1.787598650974673,0.6841777594428962
cnn,2,5,0.017873504126965627,0.9952042976318163,1.7529027329721187,0.7073309515764072
cnn,2,6,0.01754680786680839,0.9939884828593598,2.089630259582152,0.6898732450078926
cnn,2,7,0.006617192237178136,0.9981670645363682,2.1647497752389424,0.6618963259968623
cnn,2,8,0.007486058714689956,0.9977454688102604,3.0067659147393537,0.6330738198234687
cnn,2,9,0.00922212503909924,0.9966405942808424,1.7259068855853328,0.7262834194944383
cnn,2,10,0.009096349288488596,0.9979492166193721,2.206870373659052,0.6415783927049195
cnn,2,11,0.018224777934153384,0.9938036458849081,1.7974260644203774,0.7051320465782039
cnn,2,12,0.0024857135628803683,0.9994508932228383,2.430159110682754,0.6418713749042827
cnn,2,13,0.008348990682634394,0.997034762395317,1.8537611824312932,0.6717224034970689
cnn,2,14,0.00676066517319706,0.9981509453671636,1.386472897260225,0.737852779813478
cnn,2,15,0.007993244381058381,0.9982451515427445,1.8341957826383541,0.7018206202927981
cnn,2,16,0.006331038534280122,0.9994315251958074,2.0054062493373905,0.7025580986870931
cnn,2,17,0.011977628022036368,0.9958649595502695,3.4195828073048498,0.600783938406649
cnn,2,18,0.0037177393572052947,0.9990621507333927,2.89378418064984,0.6163749208249639
cnn,2,19,0.008633487565360656,0.9983220031990553,3.524806289961365,0.582943531922372
cnn,2,20,0.025162145932628527,0.9926832726380982,2.365917108928181,0.6574454322466866
cnn,2,21,0.0131122922336085,0.9950608306709999,2.5925668925525875,0.6269918876172984
cnn,2,22,0.004334968565683305,0.9983740612033062,2.723026950323887,0.6193617152659543
cnn,2,23,0.004230294917188521,0.9984382058076807,2.7070204878668895,0.6744270793906301
cnn,3,1,0.15138179809093857,0.9443424727951685,3.225544302609819,0.49438807863031076
cnn,3,2,0.03672437990443984,0.9863061320638339,2.348935004012514,0.6341034704118619
cnn,3,3,0.020393020300663266,0.9936103099139483,4.107134620487762,0.5033028801365306
cnn,3,4,0.018082284995314415,0.9935890822513996,3.026769051712762,0.6098125445250789
cnn,3,5,0.017747310909908266,0.9935353351983071,3.5895083773157346,0.49284643447082677
cnn,3,6,0.0106309606610991,0.9964770007647686,4.440874133491542,0.601082497631853
cnn,3,7,0.009730406567000617,0.9970842516527063,3.5350189956325826,0.5451133970580176
cnn,3,8,0.012455453871249725,0.9955538739276499,2.6482341154627993,0.5933774082685518
cnn,3,9,0.008125804307555648,0.9975033000725452,3.359255354797538,0.6818269178076829
cnn,3,10,0.005664585889947679,0.9977066841114529,3.5928884332080173,0.5815257129884058
cnn,3,11,0.013165575741638746,0.9954102830335745,4.433814643114064,0.6597415001135145
cnn,3,12,0.004234357165700996,0.9985546522723844,4.190925064840557,0.5641368593281508
cnn,3,13,0.007943904383871133,0.9968634055071407,4.108550195428029,0.6076929550560918
cnn,3,14,0.009808474509314598,0.9969048722182096,4.572078529425683,0.5087030382739536
cnn,3,15,0.005394315720391555,0.9978020818361605,4.065993175563635,0.5816249403070372
cnn,3,16,0.005739862407863956,0.9984100130906576,3.5783020974123545,0.5478352004509265
cnn,3,17,0.00684728240471486,0.9978039944509173,3.6595402384961453,0.581381667018953
cnn,3,18,0.008105516876660728,0.9973750747098249,5.291806137559053,0.6380167844868754
cnn,3,19,0.006159274584920473,0.9981354198919994,3.8203212508882975,0.49614774889029806
cnn,3,20,0.005853104532077571,0.9976304771476142,5.383737152270776,0.5583718891159178
cnn,3,21,0.002818977918914884,0.9988542983631049,4.098232128985621,0.46721584192520565
cnn,3,22,0.003452484181310667,0.9991356180200621,4.533273006879497,0.5771693009856188
cnn,3,23,0.004036111883695453,0.9989911627988812,4.53752335202765,0.5200047754370307
cnn,3,24,0.010088674676006658,0.9966757549206801,3.753616570810778,0.6000197671778733
cnn,3,25,0.008308458268447793,0.9973577965637129,4.478596200134933,0.5932464751794703
cnn,3,26,0.0035560534298071664,0.9988793512551672,4.613911470461608,0.5613162200458756
cnn,3,27,0.003738102322423541,0.9987772270721608,4.767492964179093,0.5682503894721185
cnn,3,28,0.0030896617094109996,0.9989477834730555,4.86337646509268,0.5646907317378677
cnn,3,29,0.0023708783343682153,0.9993158617816643,5.715046925255754,0.5369205868307538
cnn,4,1,0.19663700214275112,0.9242864175862313,1.8090561308618003,0.7071101860417309
cnn,4,2,0.042608643046666665,0.9854462875534131,2.4798847563729,0.6081614531583696
cnn,4,3,0.027891188117941917,0.9898008345350128,2.7676878077849008,0.7373568141067369
cnn,4,4,0.025012522803024826,0.992736201280803,2.907730366284553,0.7037588081451788
cnn,4,5,0.022247845601218754,0.9920461668369797,2.4853934056318936,0.6014210093534793
cnn,4,6,0.019673320554651694,0.9931412744807503,2.58545513507274,0.7383055812519274
cnn,4,7,0.011697628116578308,0.9960608722083623,2.2377912331319987,0.754348682632679
cnn,4,8,0.018474436089219153,0.9939163960743397,2.5871995606357476,0.7207652379484016
cnn,4,9,0.01201572579217081,0.9962770223094978,3.0770377331146763,0.6917620287570951
cnn,4,10,0.0084347181816939,0.9974887551393913,3.1350826835888386,0.6697953426753921
cnn,4,11,0.01569210019582541,0.9947714062817071,2.696233930264691,0.6470514841082217
cnn,4,12,0.007857596088157509,0.9968058676456796,2.5215150284034555,0.7389451353913272
cnn,4,13,0.01198330341775048,0.9955525506753693,3.2962387797176174,0.6935456424663949
cnn,4,14,0.012144698648705916,0.9957605224594154,3.1980284642426557,0.7173644659151907
cnn,4,15,0.00707663243745572,0.9978371555798051,4.12957079573962,0.7000690946882745
cnn,4,16,0.010765928094637622,0.9967097662627459,4.065615730258551,0.6448019095259304
cnn,4,17,0.008909973142529209,0.9968679755892857,2.8944122878787297,0.7121007069357362
cnn,4,18,0.006160178483108296,0.9980332256287289,3.333782835866968,0.6886427747513162
cnn,4,19,0.006653304275233757,0.9975788337222524,3.7471164772736363,0.599755884469113
cnn,4,20,0.00418023800178797,0.9986322133605832,4.535745431343757,0.6494218316373728
cnn,4,21,0.003756344276806954,0.9990368428095534,4.252357565719118,0.7142771896163818
cnn,4,22,0.009597044812589394,0.9971823825903717,4.346823033391324,0.6402113954842908
cnn,4,23,0.007307036536132596,0.9980574728499509,4.195225661612312,0.6331354712714564
cnn,4,24,0.004082525833073411,0.998638236160656,4.387753370819355,0.655620367515218
cnn,4,25,0.004246041913982307,0.9988105027393348,3.8277165449062216,0.6763176528363085
cnn,4,26,0.009866161788600086,0.9967857875934679,3.8827198664371347,0.7037668025719213
cnn,4,27,0.005298682409459712,0.998009422158484,4.73380961688501,0.652190187412204
cnn,5,1,0.17807331396450782,0.9368910736918465,2.1925640949662086,0.39999999999999997
cnn,5,2,0.041994439304898275,0.9865485255822749,1.8042058218077377,0.47932098765432096
cnn,5,3,0.02437540352801551,0.9906712275900024,2.322763334667241,0.3947530864197531
cnn,5,4,0.022039882780733967,0.9925683303317002,1.6662144528688103,0.5530864197530865
cnn,5,5,0.013620957170658383,0.9948772162325259,1.6798180820268613,0.49135802469135803
cnn,5,6,0.010064109036457124,0.996568159207179,1.1602036103297508,0.7037037037037037
cnn,5,7,0.012439140227914681,0.9956857887038537,2.031283137118142,0.5330246913580247
cnn,5,8,0.014656784789734463,0.9954554178660396,3.1358001356020018,0.44166666666666665
cnn,5,9,0.01102079264532626,0.9959495496248246,1.9074593779072166,0.45370370370370366
cnn,5,10,0.007264326837033833,0.997914408779429,2.2554187428868477,0.4583333333333333
cnn,5,11,0.010489249966126352,0.9962115510592691,1.6805013264584596,0.5117283950617284
cnn,5,12,0.006928706014235856,0.9975004845540191,2.2367239236978262,0.47746913580246914
cnn,5,13,0.008516831100288624,0.9970402792533525,5.728376190865287,0.35401234567901235
cnn,5,14,0.010265756679257686,0.9961274429730858,3.7314873086371354,0.38425925925925924
cnn,5,15,0.0072159217254499745,0.997801251034529,1.9895262026182523,0.4929012345679013
cnn,5,16,0.004104622877191475,0.9985141822539229,2.1221491447974135,0.479320987654321
cnn,5,17,0.00880618165738438,0.99696368719636,2.4031391996257354,0.44753086419753085
cnn,5,18,0.005665513135598607,0.9987022308611645,3.1960716379575294,0.4095679012345679
cnn,5,19,0.006892525132227294,0.9974898894234069,3.4282253686875035,0.3833333333333333
cnn,5,20,0.006701718087339189,0.9978990333527453,3.014521632641209,0.42623456790123454
cnn,5,21,0.0057146904466421405,0.9977744007339702,3.1061483063800606,0.43024691358024697
cnn,5,22,0.0034540475729777933,0.9987630076198415,4.131604773249063,0.30493827160493825
cnn,5,23,0.006692074695618789,0.997200597816772,3.257910166868285,0.38179012345679003
cnn,5,24,0.0038237535198762953,0.9990118329857602,2.6202950179528584,0.4453703703703704
cnn,5,25,0.003495808116759623,0.998814948734433,2.6894236368722395,0.4645061728395062
cnn,5,26,0.010759478391966336,0.9971147302440624,3.1205849755365676,0.4222222222222222
