model,fold,epoch,train_loss,train_balanced_accuracy,val_loss,val_balanced_accuracy
cnn,1,1,0.27728339632352195,0.900401928032137,1.365238714490256,0.6351819824401463
cnn,1,2,0.10649919586423306,0.9632944353645425,1.7777171424549862,0.6300128422586833
cnn,1,3,0.07372523421684328,0.9730948841093511,1.9630009722629453,0.555068051063122
cnn,1,4,0.06081715821324346,0.9782017307138161,1.8654694947870005,0.5638806639576819
cnn,1,5,0.05504090570134278,0.9810307491661989,1.7083213472176224,0.6107936406611699
cnn,1,6,0.04389171009369863,0.9839891692592283,1.885343512912104,0.6066866862461441
cnn,1,7,0.03816902954026889,0.9871129458307561,3.571106349200442,0.4115395234156787
cnn,1,8,0.045075516562120846,0.9843698576392877,2.1614145209745397,0.5869918814157877
cnn,1,9,0.029406957720549635,0.9897508665881828,3.6553233457737266,0.44357529785749134
cnn,1,10,0.038151422225368714,0.9868976139291951,1.9409860284839424,0.6465033116912352
cnn,1,11,0.026048888471604397,0.9907169181396771,2.0883129452545375,0.6094994915697319
cnn,1,12,0.02732126137267094,0.9895351675919201,2.5631534673030103,0.5813281836541232
cnn,1,13,0.0244678740942991,0.9916042776629913,3.263400537398057,0.6032591411057214
cnn,1,14,0.02923159793146904,0.9897677809200482,2.5418527174951326,0.5968692682648321
cnn,1,15,0.017515055254439058,0.9942635617676663,2.601207104250826,0.6387037816797521
cnn,1,16,0.02728823142787382,0.99119589756783,2.2369914921684604,0.6641665783378662
cnn,1,17,0.018934489582748844,0.993014926712897,3.2374311837948944,0.6099391971850382
cnn,1,18,0.020311209227302476,0.9922841020314049,3.2209196462612604,0.5821825588461448
cnn,1,19,0.021011837550432597,0.992239791932966,2.7627398808381245,0.5999071996915496
cnn,1,20,0.016943117897319143,0.9953607740392266,2.288835235903409,0.6246858270117666
cnn,1,21,0.013663475519215587,0.9952860927855539,2.925981080196139,0.603804585767001
cnn,1,22,0.019058580773092287,0.9933758351496506,3.450526597062478,0.6038770087753452
cnn,1,23,0.013106766256458239,0.9951263963837631,2.411439857749473,0.6502938022962669
cnn,1,24,0.017472055668058133,0.9937247551418427,2.95134282402587,0.5890333318090558
cnn,1,25,0.017034294228142243,0.993500782526998,2.2415037016427113,0.6485627274136209
cnn,1,26,0.011394601711724997,0.9962355970998846,2.769613324737828,0.5790016206682873
cnn,1,27,0.01403128013859644,0.9953146996134522,4.045945925117127,0.49918164357474276
cnn,1,28,0.018821200288043773,0.9935327370861741,3.2141805588718304,0.6187064297815992
cnn,1,29,0.011327743247196709,0.9962460021405035,2.709709012266543,0.6374879875033911
cnn,1,30,0.009001273592263877,0.9969131038749524,2.9744752299230344,0.5947324558076252
cnn,1,31,0.013209870908728287,0.9950962061519224,2.142407582288143,0.6537968256082859
cnn,1,32,0.011976244678314684,0.9960329878322884,3.989819058114592,0.5541565991658413
cnn,1,33,0.010047725350902207,0.9964609669473629,2.966822548493629,0.5930376662200446
cnn,1,34,0.011401419038434259,0.9961086992238929,2.778843212780081,0.6437257453739277
cnn,1,35,0.013136800543044303,0.9942153559198547,2.9830900597556527,0.5708041374708042
cnn,1,36,0.010933725740960654,0.9964786154686317,2.138742058759478,0.6686787681088359
cnn,1,37,0.010189389178468936,0.9961438153430379,2.9434174073668506,0.6335154889067396
cnn,1,38,0.011382015586231994,0.996193051328781,3.5121188079314467,0.5640899481472496
cnn,1,39,0.00744682006008635,0.9975207455064323,3.5476596389146815,0.5738439786498937
cnn,1,40,0.008443334428508163,0.9976229323038982,2.879697287461718,0.6470802815842865
cnn,1,41,0.010671228712737083,0.997112365411271,3.5364890671376603,0.5662211833345537
cnn,1,42,0.012253404556664604,0.995768787039686,2.964881780438289,0.6038181500750818
cnn,1,43,0.008181508901438624,0.9972847844470265,3.1422999432575964,0.6419973842339831
cnn,1,44,0.00856235047858951,0.9970858900054097,3.239467784484707,0.5799803566439427
cnn,1,45,0.010743649307042712,0.9962615192397353,4.283180076622592,0.5358544707897758
cnn,1,46,0.00497723089143526,0.9983908236031791,3.738138361279757,0.6159301828895174
cnn,1,47,0.012312935341777539,0.9951611454082062,3.5429635320085375,0.5852724148318726
cnn,1,48,0.007440533984271707,0.9969695833413456,3.298353522106568,0.607362260597011
cnn,1,49,0.00762058693572866,0.9975895805120883,2.486082204586976,0.6531618472622785
cnn,1,50,0.008298387476673223,0.9967387343405528,2.427043530363936,0.6840972254712243
cnn,2,1,0.24360217935328862,0.9120446708534685,1.8267993185267999,0.38284102098008027
cnn,2,2,0.07931898851379675,0.9732863031822253,2.210257420064165,0.36895023858214043
cnn,2,3,0.061862015433623886,0.9779344207738497,3.0855278729095947,0.40570514277058245
cnn,2,4,0.04736640772568638,0.9837988311129134,2.404800389050506,0.3700484738317049
cnn,2,5,0.04795078199612428,0.9818503943930219,3.119517474167949,0.387540710444596
cnn,2,6,0.034100947394539824,0.987533793995091,3.2243536967942847,0.39288419298644245
cnn,2,7,0.03339967373146474,0.9888671909384117,2.927396670194271,0.4398602590320382
cnn,2,8,0.026571008304317634,0.9904223324558924,3.4210352406505353,0.4625558585170037
cnn,2,9,0.029915469239247462,0.9887909297043023,3.305983637337912,0.39765772930394605
cnn,2,10,0.024950220613794316,0.9911712681249694,3.86854693542077,0.4123418919942437
cnn,2,11,0.02689088550732308,0.9903848239500043,3.1920570052289046,0.4091910929334242
cnn,2,12,0.021961798904439344,0.9929563655477539,3.6370653647549736,0.4097894417935317
cnn,2,13,0.02170836836237343,0.9921844045866486,4.565207198452491,0.39538173142467614
cnn,2,14,0.020534813869425746,0.9921785017382696,3.657122429716401,0.36263159887904267
cnn,2,15,0.02304140817660979,0.9920267127834578,3.4115729060097095,0.35618609406952967
cnn,2,16,0.017835868101250638,0.9944340353408374,4.274485753700173,0.3458816178141331
cnn,2,17,0.016549251311591864,0.9950869481023661,4.017665859255842,0.36300272665303335
cnn,2,18,0.018309783404060673,0.9934369570623757,4.077208135161657,0.3826724986745436
cnn,2,19,0.012477509291971898,0.9957262956806106,4.286726869862755,0.37562675149587205
cnn,2,20,0.013964942357561835,0.9952231187455919,4.222971894471692,0.4344467166553056
cnn,2,21,0.01632735986533083,0.9944834586680905,4.525078459322596,0.37262553965007955
cnn,2,22,0.01330179949589121,0.9958982861804927,5.143434654232545,0.3871468605619935
cnn,2,23,0.014028629344845764,0.9951124663943277,4.865035966469692,0.4176778004998864
cnn,2,24,0.011155250573051254,0.9954998587483593,4.73829736046536,0.44125388169355445
cnn,2,25,0.013776323872854246,0.9950085966347055,4.541388681842574,0.4130708929788684
cnn,2,26,0.011218439678573633,0.9962474748025416,4.772766042381776,0.3868420056047868
cnn,2,27,0.012290617456116154,0.995689851435154,5.098331829454181,0.4040994470953571
cnn,2,28,0.009294975012158061,0.9966647841648505,4.706362912999502,0.40368666212224497
cnn,3,1,0.2602712141983595,0.9037277980146577,1.733199403140228,0.6028125801860608
cnn,3,2,0.09450423583441135,0.968237620869202,2.793454700387789,0.548569062323825
cnn,3,3,0.0682051936458537,0.9759713817368955,2.6607832070459074,0.6252636780760225
cnn,3,4,0.0575538815749862,0.9792108513045701,2.1624305410566778,0.6308275340135933
cnn,3,5,0.04591949245371597,0.9834553830540896,2.2256398900491625,0.602104490257923
cnn,3,6,0.0409029187336348,0.9862704589234558,3.713144306608269,0.5854734170446813
cnn,3,7,0.03464689677609395,0.9879760222690684,2.201981472105608,0.565847979297969
cnn,3,8,0.03272769544984146,0.9884976224886449,2.915177708999677,0.6028118193623402
cnn,3,9,0.029646356223706462,0.9886621057228878,1.9855516184569852,0.6887047905212236
cnn,3,10,0.028420209555275206,0.9910203006493834,2.750346558019153,0.6650073330850037
cnn,3,11,0.02524645401665355,0.9909130830772122,1.7166421442765276,0.6323156323016378
cnn,3,12,0.023793888529438582,0.9919943751527853,2.4718950484578577,0.5878191115100321
cnn,3,13,0.023344456281566384,0.9923087374277714,2.6461709080654554,0.6265307898149793
cnn,3,14,0.022596206651382764,0.9929492756305359,2.3283183253871416,0.5857239001960975
cnn,3,15,0.025489380497468298,0.9919634340952297,3.047321192303965,0.5998091829805567
cnn,3,16,0.023750455188737477,0.9922515650074756,2.669592664074344,0.6242780238575579
cnn,3,17,0.014591143640011312,0.9947741732368822,2.711601592700337,0.6457521700832539
cnn,3,18,0.01155262990516686,0.996138863219442,4.5127847518905275,0.6217832491233116
cnn,3,19,0.027208624998351784,0.9908175159847258,3.2538014430580238,0.5677741851326145
cnn,3,20,0.017020207696799676,0.994536064166068,2.7932299662790223,0.635757470547015
cnn,3,21,0.015443976740984392,0.9946167939606164,3.0250553238008333,0.5619465562692141
cnn,3,22,0.011636938946749163,0.996698694938102,2.994008766390448,0.6447144024778221
cnn,3,23,0.011947100576819757,0.9960507963624782,3.5707263282439126,0.6103589037585213
cnn,3,24,0.020556152806884994,0.993535548505931,2.3999107726287874,0.6545609945463913
cnn,3,25,0.008521435206321913,0.9967177990324217,3.4807904265017404,0.5989660917353365
cnn,3,26,0.014056744699944867,0.994735918427355,3.533330436546407,0.6212976464639871
cnn,3,27,0.014562941636878471,0.9946169105128356,2.7686249937783947,0.5819561006306417
cnn,3,28,0.012709392637068809,0.9955600905795695,3.485048238842784,0.6210975781791469
cnn,3,29,0.009795270060655555,0.9967868317263974,3.0333761684859506,0.6389710299470936
cnn,4,1,0.2516210830505983,0.9071142987548572,2.1072109477311733,0.4221180091593289
cnn,4,2,0.10519925104569137,0.962884520658346,2.18575217737187,0.4143294389054488
cnn,4,3,0.08136172454579975,0.9698605201247794,2.5109591241327713,0.4752463996528135
cnn,4,4,0.06580997694364209,0.9765835787082818,3.3967314765122105,0.48059666975023124
cnn,4,5,0.05606337989893179,0.979294101869297,3.1891602422995167,0.4417254828062722
cnn,4,6,0.053430418890360515,0.981636486477183,2.715628198479357,0.511870010621167
cnn,4,7,0.04831607282049609,0.9807779288530805,2.4193678112516626,0.5384037984947637
cnn,4,8,0.04145993208397686,0.9849251116470007,2.5749700138670684,0.5186795491143318
cnn,4,9,0.0376112272150895,0.9873040519588806,2.504047653181044,0.48251761629035755
cnn,4,10,0.03516161679599239,0.9872273453620434,3.106575989375477,0.47750453969232876
cnn,4,11,0.03391773986880219,0.9882090703002581,2.9585973436524644,0.5087456173410536
cnn,4,12,0.030531202036137177,0.9882019419433906,2.8319774401762587,0.5009850275807722
cnn,4,13,0.030944296682862863,0.9883872172011086,2.3785392828527057,0.5448615822112585
cnn,4,14,0.025265265185598653,0.9909996259400743,3.128439807707297,0.5637801075821427
cnn,4,15,0.024802706665273205,0.9910591146353198,3.4115667756585797,0.44851417868685833
cnn,4,16,0.023667425358665097,0.9917277033617545,3.124050752993712,0.5513490595127968
cnn,4,17,0.024553405912727748,0.9911721924047074,3.0672955440183802,0.5867920649604276
cnn,4,18,0.023603835737684462,0.9920203185445894,2.910231592306524,0.5019255147839792
cnn,4,19,0.024978002249680022,0.9911361859262641,3.2322751082463057,0.4926539783693653
cnn,4,20,0.01565962397562768,0.9951988271328762,2.972274835848087,0.46029025479380087
cnn,4,21,0.019358380766959865,0.9930947847546898,2.7787084174500474,0.5173570425189297
cnn,4,22,0.017617093511683907,0.9938609658010137,5.141816401840785,0.47470049451239715
cnn,4,23,0.01471846588105513,0.9950271247099,2.953672055022547,0.5544420461164217
cnn,4,24,0.0172828765897717,0.9936346257307952,2.96190130180091,0.5667823003391921
cnn,4,25,0.01717822990467539,0.9938736745940985,3.2837855406119743,0.5275747764415665
cnn,4,26,0.018023692977083467,0.9933569738952984,3.2048478928955064,0.4938902593620447
cnn,4,27,0.019551229742438284,0.9931949963229395,2.9297226780678525,0.527847157981293
cnn,4,28,0.013271164863527016,0.9962160592019845,3.075393616116442,0.5318803462728842
cnn,4,29,0.012984653152396972,0.9954670960572521,2.7969892239704954,0.5464050776030425
cnn,4,30,0.01248877825066167,0.9956781308406359,2.7960477586565293,0.48344554082296914
cnn,4,31,0.012127393170018798,0.9959084806718116,3.361447349258574,0.5803125820856317
cnn,4,32,0.01069499123348376,0.9961760429625839,3.3101689677195183,0.49458720206484624
cnn,4,33,0.014424165264180947,0.9950072875599479,2.806377458549971,0.5719983782734323
cnn,4,34,0.011586747909626147,0.9955239882587478,2.9270092797195293,0.5633612567238839
cnn,4,35,0.015240321074535457,0.9944543958512612,3.6587989448877627,0.46929797512591226
cnn,4,36,0.010353550911879861,0.9960446987185047,3.8473224717627135,0.5145846895307272
cnn,4,37,0.009805637163743894,0.9965673217930185,3.7315480253776077,0.49510084398305176
cnn,5,1,0.25520347748143773,0.9065980745253889,2.722344886446047,0.3745685864711458
cnn,5,2,0.09662036426346172,0.9670943763224858,2.827614617295763,0.40939516451388175
cnn,5,3,0.07438402573371633,0.973038822805662,3.4300252557138773,0.4925337764529871
cnn,5,4,0.05940480277808767,0.9797211663290301,3.7416830423969945,0.4055192951199735
cnn,5,5,0.046144704524662884,0.9849538936549909,3.4105869960794166,0.4589154989093318
cnn,5,6,0.04277904694296837,0.9847902641890638,4.303207310024087,0.49102454289009945
cnn,5,7,0.038729270531756316,0.9871369684035076,2.899080899519635,0.48199512339968703
cnn,5,8,0.03273232547598099,0.9885287143485266,2.6180642244533345,0.4316513630497596
cnn,5,9,0.029845648448039375,0.9891878547534958,5.638073258836496,0.33610083256244216
cnn,5,10,0.0318595973670377,0.9893541105024365,4.143341793496373,0.38175386302120806
cnn,5,11,0.027228284199117832,0.9903452102487503,3.5192095098398632,0.5073494478135243
cnn,5,12,0.02784624547273348,0.9899365294645452,3.8519537911702386,0.46509233562887586
cnn,5,13,0.02329413543083854,0.991072223434135,4.166891191921529,0.4011686138806089
cnn,5,14,0.023091779788393472,0.9914408764089053,5.315711960909427,0.43917240552300685
cnn,5,15,0.01940549890247153,0.9929287471437934,5.750949728972917,0.41882173570425185
cnn,5,16,0.01883316080563146,0.9929947687840256,4.656516029984816,0.4082959308367881
cnn,5,17,0.017258532150494315,0.9937219660215894,3.0730293725089357,0.4548497618802892
cnn,5,18,0.024339498304677184,0.9909742475040826,4.1776222902678,0.42895952535946374
cnn,5,19,0.01677292490787351,0.994240437469943,4.2567531719909555,0.37029442331631657
cnn,5,20,0.015901311858955918,0.9937518851190473,5.409585076532809,0.38639919598908196
cnn,5,21,0.014843940632540438,0.9945568797968245,5.434521074493297,0.4150937632050799
cnn,5,22,0.013869456069196812,0.9956441432671221,5.096430661333785,0.4011883144322244
cnn,5,23,0.013432416430757642,0.9946810725439681,5.509013571796277,0.39657638674752455
cnn,5,24,0.012960832611162407,0.9958246170468789,4.398985341241687,0.47001119219743953
cnn,5,25,0.017317134288152805,0.993643800477018,4.999516765912032,0.46016262948116166
cnn,5,26,0.013185226405195075,0.995435746648155,5.292705024860682,0.4156824956316168
cnn,5,27,0.01265914303746623,0.9954278961148341,5.439579616563118,0.4641812564954717
cnn,5,28,0.01352113179927514,0.9952438651727746,4.303346921476877,0.4474780438779822
cnn,5,29,0.009860502825256507,0.996489349806513,5.161234212657382,0.44565103185208027
cnn,5,30,0.008320679217475343,0.9972743111125156,4.598557523980769,0.46044985781341
cnn,5,31,0.01026383335230778,0.9969081393026947,4.4019888539656895,0.46783413848631233
