model,fold,epoch,train_loss,train_balanced_accuracy,val_loss,val_balanced_accuracy
cnn,1,1,0.2534960251767188,0.9069604466943186,3.7202210447004984,0.33034188034188033
cnn,1,2,0.09577024576220927,0.9670328859661602,3.2600905774829863,0.4085470085470085
cnn,1,3,0.06554943732335232,0.9769470625645241,3.2628803407375373,0.4132478632478633
cnn,1,4,0.05039201698132924,0.9824486580268367,4.677614652420196,0.35854700854700855
cnn,1,5,0.0442099143355985,0.9848430252754143,5.0694407327080295,0.3799145299145299
cnn,1,6,0.038609007356405656,0.9864839035775187,4.28084236037008,0.37435897435897436
cnn,1,7,0.03799561452126779,0.9871780566881263,5.295074403412215,0.4008547008547008
cnn,1,8,0.03220496038058107,0.9881973164049627,4.892518828580137,0.3269230769230769
cnn,1,9,0.02893740290829945,0.989290125671115,4.681063409881272,0.39059829059829054
cnn,1,10,0.024784279862589235,0.9896380677834701,5.682225782092552,0.3816239316239316
cnn,1,11,0.026306729665624775,0.9911840421882472,4.4228214596991196,0.4867521367521368
cnn,1,12,0.020411310305800207,0.9915343977269949,5.69271479475881,0.3547008547008547
cnn,1,13,0.02153351056284529,0.9924399291584197,5.568752456523287,0.3598290598290598
cnn,1,14,0.02177393495065709,0.9911928801590747,6.050224547537539,0.3397435897435897
cnn,1,15,0.02385921614196767,0.9919367322888957,5.336123666632734,0.385042735042735
cnn,1,16,0.02278879908267949,0.9926312181111894,6.75139148374915,0.3115384615384615
cnn,1,17,0.020324590185295425,0.9929030807143012,5.06251485350295,0.37777777777777777
cnn,1,18,0.02293511036088083,0.9925916389316853,5.967074474565332,0.3431623931623931
cnn,1,19,0.01947756565652006,0.9941084698194359,5.391894282336928,0.2803418803418803
cnn,1,20,0.018740624475036122,0.9933573942993551,5.755871272744993,0.4645299145299145
cnn,1,21,0.014280433877346305,0.9944836081565639,5.267044741987911,0.45213675213675214
cnn,1,22,0.011693678930558754,0.9960072131893534,5.486478921828362,0.4324786324786325
cnn,1,23,0.015385461915840486,0.9942445674768349,6.159977570744022,0.3764957264957265
cnn,1,24,0.01063423490801532,0.9960187972982596,6.734397551552903,0.4051282051282052
cnn,1,25,0.01112143719291063,0.9958162569482698,5.977824600141806,0.3730769230769231
cnn,1,26,0.011096959488967124,0.9958966971761595,6.50713643973741,0.35341880341880344
cnn,1,27,0.01270078135320156,0.9951348363929974,7.052510441370452,0.3726495726495726
cnn,1,28,0.013453679013335725,0.995310646652353,7.830952406988945,0.3923076923076923
cnn,1,29,0.014944213014093424,0.9950271999403348,6.693601707527693,0.39999999999999997
cnn,1,30,0.013434244314326601,0.9952530419305899,6.652592072657847,0.4153846153846154
cnn,1,31,0.010747174047557045,0.9964122938893327,8.549602977110359,0.3367521367521367
cnn,2,1,0.3125503713536835,0.8815068343155689,2.383961230167339,0.5719711801465195
cnn,2,2,0.1297663776402849,0.9540721947056836,1.953224849929968,0.6008988040976725
cnn,2,3,0.08842079115706725,0.9692185311534759,2.089085942711994,0.6110612770039368
cnn,2,4,0.0748156291172505,0.9734943486702211,3.275510346244436,0.5127377000891132
cnn,2,5,0.05644862234237806,0.9793272701697164,2.683496044261569,0.5803155857884797
cnn,2,6,0.057416109999996405,0.9800906914666753,3.8390295658999984,0.5099356794770662
cnn,2,7,0.048814278282805136,0.9826844175768046,2.216202675101874,0.6226384247818842
cnn,2,8,0.04510728158765171,0.983999798271582,3.3579186857490493,0.3757687785773089
cnn,2,9,0.044322927615620206,0.9826594013819757,2.692814032097472,0.5937083713162923
cnn,2,10,0.039005709890552936,0.9848251222128077,2.6943020184676314,0.627583986221747
cnn,2,11,0.032524169389335805,0.9880176764100983,4.057833773247294,0.5207067864359162
cnn,2,12,0.03163806629481931,0.9899814923531577,3.4193713900698306,0.624443356393959
cnn,2,13,0.03149878493295999,0.9891690868548847,3.6305361612245375,0.49634685887031993
cnn,2,14,0.032863391192818024,0.9884016662835359,3.9998592830491364,0.3847002897515641
cnn,2,15,0.02869569205843058,0.9900229521355105,3.708863962775423,0.6182313669610681
cnn,2,16,0.028372742404897774,0.98860316082577,3.503208959090102,0.5596965757330798
cnn,2,17,0.030573133119668652,0.9900471327562642,2.8078137766109226,0.6479488272187454
cnn,2,18,0.022580797531184436,0.9913771030421445,3.282973337941333,0.5570322934779045
cnn,2,19,0.02318857102581338,0.9925683170041323,2.9886316052858173,0.6346715424347827
cnn,2,20,0.026689531316313093,0.9899158519500513,3.1276768746121433,0.6117689166760244
cnn,2,21,0.020266707478726227,0.9924201673818586,3.430616644476501,0.5560860034161995
cnn,2,22,0.01907317933721863,0.9930671440962588,3.4339110180561785,0.5913215303104594
cnn,2,23,0.01911505903037608,0.9929054530712259,3.7425234292795384,0.5854831513754888
cnn,2,24,0.021785255360118366,0.9922955754205319,3.490189529719425,0.6268296394251839
cnn,2,25,0.01815070798330838,0.9936509722467791,3.2833594418940844,0.6026066713769023
cnn,2,26,0.016665116555244,0.9938412046112123,4.774326647581142,0.5667251610047356
cnn,2,27,0.021962403578305593,0.9920111613135921,4.162448791294498,0.5771639243377132
cnn,2,28,0.017015910378416578,0.9944354593654586,4.132893607484221,0.5940219646704428
cnn,2,29,0.015389522272197871,0.9950563865796852,3.704645360649893,0.6102356605756764
cnn,2,30,0.01467371455674568,0.995546032987699,3.5192676977632185,0.5768230483501272
cnn,2,31,0.01560706090250113,0.994854481691913,4.0811931027862345,0.6136226594418255
cnn,2,32,0.01588058322015052,0.9938114173521989,3.8874569398494403,0.5307904686777466
cnn,2,33,0.01948965311943105,0.9937178585694989,4.184797356082075,0.5594891951704507
cnn,2,34,0.017027251622455237,0.9944479674628731,4.19382949894488,0.5918122922271114
cnn,2,35,0.015088450232478443,0.9944342134458454,3.739747275680309,0.570900798856896
cnn,2,36,0.013204309854745426,0.9948569735311396,3.145557782120716,0.5312231082394018
cnn,2,37,0.01342113400792947,0.9951401417184659,3.826350301856419,0.5767823278282164
cnn,3,1,0.30508040501070877,0.8898285674798078,2.273098796783761,0.3519595628900849
cnn,3,2,0.1158830995471882,0.9588340418535354,2.3979521166006488,0.40909585719235037
cnn,3,3,0.09022343018025691,0.9698353759110866,2.68160442806133,0.397792017577507
cnn,3,4,0.07300860241188535,0.9749686658952145,2.2523640276648695,0.49875256267378676
cnn,3,5,0.06286498117510096,0.978187148147898,6.132687659356053,0.3508540855418372
cnn,3,6,0.06386644543131946,0.9788595823853443,2.813864271231059,0.41687003278261786
cnn,3,7,0.050474150364711284,0.9810801210172349,3.459275567008887,0.41543851261985826
cnn,3,8,0.04939160265660446,0.9824387625690839,2.5035515339897394,0.5263173483394583
cnn,3,9,0.04499398744311683,0.9839867416863131,2.070507108479789,0.5283563700212064
cnn,3,10,0.04066355518547685,0.9857546893734788,3.046843442695812,0.448404128728457
cnn,3,11,0.033518957489702315,0.9891223730806251,3.0048142058518597,0.45933583963820435
cnn,3,12,0.03642808614396407,0.9863825552340694,2.8946392391498947,0.464960623105436
cnn,3,13,0.03191846377532264,0.9902339147583983,1.9248791112626182,0.5419033691820866
cnn,3,14,0.030098134873177123,0.9890530538279424,2.2039570523750793,0.5827070074123298
cnn,3,15,0.030902126147806745,0.9888752732065492,2.062622147983267,0.6111343052773611
cnn,3,16,0.027403015475491493,0.9907704667504366,2.395157175874704,0.5553027975460072
cnn,3,17,0.027809155417760068,0.9911347896591242,3.16751705656174,0.5055175104483253
cnn,3,18,0.02683673404379598,0.9907543132451678,2.8381580790971217,0.5519368171721931
cnn,3,19,0.021936616699141657,0.9919348846030654,4.749103547260876,0.4214597244357842
cnn,3,20,0.026939388617185093,0.9897118402656475,2.349212035545195,0.5467532547443229
cnn,3,21,0.02322267890834025,0.9914682310088262,3.876601493978092,0.4559621834971421
cnn,3,22,0.022397788212141938,0.9926520124945825,2.955827625949603,0.5035909450141824
cnn,3,23,0.02484467749275479,0.9904732469614622,4.467376397589255,0.41630688593496995
cnn,3,24,0.01679459531309736,0.9935300630798928,2.571989353344771,0.52071006478723
cnn,3,25,0.02132568879044681,0.9921133696467898,3.356046558158858,0.4762120985526798
cnn,3,26,0.020117590314449835,0.9933497767529721,3.315991702938557,0.4837188320569241
cnn,3,27,0.018620860160392893,0.9927021324094811,3.7487744583518823,0.46671976086647726
cnn,3,28,0.013685145057596465,0.9957173397244846,3.6331914353796324,0.4856233192311968
cnn,3,29,0.01548348609421737,0.9951869184156056,2.874274050315534,0.5155616690538719
cnn,3,30,0.01662325766915923,0.9947196856762499,4.197438287745457,0.4309999730930985
cnn,3,31,0.015530181414266866,0.9945335582387284,3.676101498554494,0.4530863363208338
cnn,3,32,0.014656985387487761,0.9949503814906273,3.872964284507902,0.48388811609764826
cnn,3,33,0.015358119541659627,0.993808083531083,3.7623784443081134,0.4932088232110196
cnn,3,34,0.018962535970104,0.9929801528606713,5.008536907733308,0.4258316370513457
cnn,3,35,0.01637717106270559,0.9933745666469275,4.117990660155906,0.44443565277081637
cnn,4,1,0.33817271961431417,0.8763628132972728,1.4916086846268335,0.5081159516450509
cnn,4,2,0.1268148572915899,0.9554994515439983,1.0405278642407765,0.6595218512305943
cnn,4,3,0.09218820737442002,0.9693019583910418,0.9945349870522733,0.6602685605077313
cnn,4,4,0.07332671953731083,0.9748154876432188,1.2032716342830247,0.6768897490662041
cnn,4,5,0.061375017356060976,0.9794148770042294,1.4899126759012293,0.5764585338329691
cnn,4,6,0.05192623813678178,0.98275895599467,1.121343081818181,0.6476873199700731
cnn,4,7,0.047456978172911994,0.9837295067325202,1.5775830719775936,0.6244739267327627
cnn,4,8,0.048696166172157974,0.9819904972421337,1.2714641025749815,0.6120051198977587
cnn,4,9,0.037146845626869304,0.9867122645758828,2.068089918791096,0.6314251203966856
cnn,4,10,0.03833816736857573,0.9859349294319354,2.9154247498465087,0.5015331699891892
cnn,4,11,0.037133586594011704,0.986453121361726,1.065730583567063,0.6783507736470797
cnn,4,12,0.03483104789494454,0.9881635607987196,2.0724957065234855,0.5551798140689983
cnn,4,13,0.034121422865635916,0.9882699434913294,1.3892448708209078,0.6817733271094951
cnn,4,14,0.02812255397532551,0.9902128024697233,1.2205479024890438,0.6766126010877539
cnn,4,15,0.029348755287511658,0.9903545567236541,1.2925401460506019,0.6863093601865858
cnn,4,16,0.02736994514208553,0.9906834204384406,1.437179281339072,0.635663202710771
cnn,4,17,0.02106635566098183,0.9926612786046438,1.6861088938432087,0.5913733281790683
cnn,4,18,0.027474207648083393,0.9900904640027859,0.9561203456365363,0.7297806691907143
cnn,4,19,0.02552623674356645,0.9911041060670325,1.8935762682693242,0.6252294060957361
cnn,4,20,0.02868587533957907,0.9895435130225567,2.105603472890528,0.5678067954443188
cnn,4,21,0.021024865011817644,0.993502371986839,3.353031054724807,0.5635790399011235
cnn,4,22,0.02200512776119987,0.9918413585121354,1.7653330644953615,0.6145723422895891
cnn,4,23,0.019540099291121545,0.9937695128410601,2.2750192323920846,0.5733071399826648
cnn,4,24,0.01822971814243439,0.9925866085973025,1.7596548131521472,0.6114897638681854
cnn,4,25,0.016632465424975505,0.9943577976449921,1.4701611634567096,0.643100931966199
cnn,4,26,0.0220760328625017,0.9923874307410178,1.0498199963046073,0.7065217838536998
cnn,4,27,0.016797798501056605,0.9936682136594853,2.018764565087387,0.571844204265145
cnn,4,28,0.016534949664154346,0.9942019889900923,1.2226627196430293,0.6818871993466732
cnn,4,29,0.01073804539107966,0.9970619964872046,2.302781896108947,0.5892764609745741
cnn,4,30,0.018802773347332342,0.9932879831032495,1.6702878462756752,0.6635962162935323
cnn,4,31,0.02471954944393084,0.9919713222456257,1.7816890742452378,0.63430981118996
cnn,4,32,0.013382384503516472,0.9955436160177785,1.0419227019694943,0.7148485502458396
cnn,4,33,0.014504056696984792,0.9952215933167207,1.1135943121222571,0.7104301847326031
cnn,4,34,0.013976447364341636,0.9955436160177785,1.6322483765511526,0.6703461685125252
cnn,4,35,0.01042658071115901,0.9963301999266485,2.859051947992911,0.5122511289930901
cnn,4,36,0.016977159362275934,0.9937158821190817,1.0855613061600269,0.7266014311988269
cnn,4,37,0.015438754148973593,0.9948206958486335,1.4846580082113678,0.6635630097761376
cnn,4,38,0.014678317124110305,0.9940779875189838,2.449589664727633,0.5655199131680662
cnn,5,1,0.30488870917809907,0.8868842132613151,1.575798714693049,0.42748225781644805
cnn,5,2,0.11894770256488396,0.9601507248878264,2.6971074925929597,0.39923538329708
cnn,5,3,0.08767123831795218,0.9682336121278894,3.2023812315482676,0.40345615538417595
cnn,5,4,0.06462015915000907,0.9771590624698746,3.0270677007363966,0.38236694277825384
cnn,5,5,0.06056889903385179,0.9773251082013649,3.598049744804045,0.4200067380015966
cnn,5,6,0.051903329788049235,0.9831831114703373,3.846662412199257,0.37893935066171575
cnn,5,7,0.04288771326706106,0.9850019112675713,3.1993484106841854,0.38891525498209306
cnn,5,8,0.05546148574582076,0.9848991243756848,3.670298859714055,0.49202279202279203
cnn,5,9,0.04941209895240696,0.9820342178475897,3.4263874204381235,0.42199444847259754
cnn,5,10,0.03567806427421067,0.9866253120419941,3.855789011097506,0.3872410080636302
cnn,5,11,0.04305503047337603,0.9873366804764298,3.167396172888772,0.3910721478844872
cnn,5,12,0.05471878386191617,0.9807049954491386,2.644087199001296,0.45682918433561115
cnn,5,13,0.040898103394296094,0.9853664900052533,3.222597150736058,0.3958253685760112
cnn,5,14,0.023073507550151848,0.9927900754134268,2.5328156973931533,0.4249027750313097
cnn,5,15,0.026826544197450262,0.9930442673713306,2.415437140606684,0.4556939775448772
cnn,5,16,0.03583531675275428,0.9864587647684933,3.773320768839403,0.41429335208255513
cnn,5,17,0.03583756092942853,0.9898735030802704,4.145463927539266,0.435978731351482
cnn,5,18,0.0333911136856363,0.9883346849672455,3.7346867637029284,0.40751726612909134
cnn,5,19,0.029174378624556623,0.9908786490931929,4.393938114504735,0.44239594548077843
cnn,5,20,0.03581110285705316,0.9870850777836706,3.872397953018894,0.4254967445198808
cnn,5,21,0.01862988246826009,0.9937253226066494,4.054214776871586,0.38808472304616265
cnn,5,22,0.01839277481192599,0.9936848058624208,4.776738164412518,0.44890910289367875
cnn,5,23,0.013509818839279573,0.9949111694086099,3.332315445493901,0.42288430411823724
cnn,5,24,0.025172588766390898,0.9955668788913337,4.715963013823077,0.41774731029229745
cnn,5,25,0.030019482318614888,0.9889560305359012,3.479020782869002,0.5057448787525908
cnn,5,26,0.016573594395768967,0.9942813072204918,3.5442777331852775,0.4568006210679732
cnn,5,27,0.015591258248853625,0.9948190300355454,4.440581626371204,0.40958846922857206
cnn,5,28,0.014424879107822556,0.9946018056489296,5.345161770886436,0.4346618914742308
cnn,5,29,0.01676835626667308,0.9944539641479279,3.8779121015537217,0.46806773156387554
cnn,5,30,0.01947980976236707,0.9945025535379087,4.34441040400387,0.3972784332681505
cnn,5,31,0.02557382651316604,0.994992188504992,6.788789063535921,0.3994851287910414
cnn,5,32,0.03267709198208175,0.9879144760620017,3.2868925006907856,0.4742871999941409
cnn,5,33,0.016406446365972722,0.9948230519663466,3.679338101907558,0.4453672577065893
cnn,5,34,0.013450019275982656,0.9949547481758437,4.895859075808248,0.40346054973304324
cnn,5,35,0.01367581707296708,0.9950398035951019,3.6038929537663082,0.41969547162349224
cnn,5,36,0.0251236916327497,0.9946311733323258,3.6775735354245955,0.48775661166406664
cnn,5,37,0.028394517256741636,0.9904334952328387,2.7893268276142646,0.45189579534052543
cnn,5,38,0.02154236643117417,0.9955476859688991,2.991723225812541,0.5073839708801149
cnn,5,39,0.020277722247220846,0.9925880220184444,3.05454810499357,0.5511099392847465
cnn,5,40,0.011944847397061038,0.9959492178857942,4.03182934551504,0.45952072301686697
cnn,5,41,0.011945481772806516,0.996037822477993,3.6497681301315072,0.4595053427958313
cnn,5,42,0.0071823882138360145,0.9987001884611703,4.943191916136558,0.43186122646276887
cnn,5,43,0.00877711957796066,0.9964500019137099,4.844156947101548,0.42666271175268605
cnn,5,44,0.041589612710562655,0.9950843566622067,5.127083269215344,0.4077340540065475
cnn,5,45,0.035340851503525665,0.9872739231788364,2.6609846843189615,0.4664630618358124
cnn,5,46,0.011383592925833477,0.9958276964372583,3.5629474875428073,0.41974600663546674
cnn,5,47,0.008496368162063488,0.9972454658596078,3.331297933126395,0.4174755930539992
cnn,5,48,0.0061962494990240495,0.997794337735494,3.7921380921154797,0.4355121979800643
cnn,5,49,0.0070612874823919305,0.997624728438988,4.531697788077577,0.4403489113000681
cnn,5,50,0.006803609810589348,0.9977538209912654,3.9554970732165176,0.42681358439713196
