model,fold,epoch,train_loss,train_balanced_accuracy,val_loss,val_balanced_accuracy
cnn,1,1,0.15845582230304855,0.9448535608207324,3.414290681309414,0.6954450896631513
cnn,1,2,0.01980931173893623,0.9934997615490321,4.041168949016314,0.631952231566769
cnn,1,3,0.0165268318197738,0.9945629100804267,3.204900099012414,0.6053030303030303
cnn,1,4,0.01216103896527091,0.9967444212573775,3.339504449660994,0.6897165487473856
cnn,1,5,0.01307012269766895,0.9955449104941162,3.667579030092329,0.7423680638989009
cnn,1,6,0.009731715148822989,0.9963569296057488,4.446193593910164,0.7097455835891959
cnn,1,7,0.019929849713073402,0.9975063461735854,3.254530285565518,0.6638888888888889
cnn,1,8,0.023454362578460917,0.9924886637952796,3.796008246220799,0.6321969696969697
cnn,1,9,0.006416873450572013,0.9982943878638917,3.4096270243758653,0.7087588439460686
cnn,1,10,0.003309897662460127,0.99883837663539,6.290014658077228,0.6585424731900503
cnn,1,11,0.003990125000852877,0.9985834046823049,4.359209439686474,0.630429292929293
cnn,1,12,0.005560755344615447,0.9984138491753859,4.678956697951972,0.6633838383838384
cnn,1,13,0.001489562930585577,0.9996364857696979,4.862542655038002,0.6424242424242425
cnn,1,14,0.00028329795592650864,1.0,4.875822891230457,0.6556818181818181
cnn,1,15,0.012297768418570587,0.9963565038106111,4.247730637579405,0.7045359987540604
cnn,1,16,0.012445483313116248,0.995778459796702,3.935991533343135,0.6423680638989009
cnn,1,17,0.0028744415172688663,0.9992254424918808,4.275752304286514,0.5656565656565656
cnn,1,18,0.0030413761256348096,0.9995514951186695,5.2470184613481115,0.5532828282828283
cnn,1,19,0.01550514397514913,0.9958112272766164,4.117224817444654,0.5960858585858585
cnn,1,20,0.001517764491602845,0.999418975420126,4.479514379577329,0.6121212121212122
cnn,1,21,0.0072237155632029456,0.9978925604398005,4.809686347433059,0.6631313131313131
cnn,1,22,0.013304213948019842,0.9959773764224328,3.858359170078971,0.559815667690117
cnn,1,23,0.0033383981872600003,0.9992494199132071,5.070154875016869,0.6654413073465937
cnn,1,24,0.00314822271006419,0.9989460673223313,5.382410299422314,0.5649457126329372
cnn,1,25,0.001140989964013291,0.9996974989993997,5.006464688069286,0.6937569527877897
cnn,2,1,0.1252890115611196,0.9562430431977403,4.764585426320262,0.2865983482616021
cnn,2,2,0.01554799992706634,0.9945636676408288,11.373559083596845,0.3344788087056128
cnn,2,3,0.015249547116608093,0.9950106164052066,6.87018859037579,0.22946756792611897
cnn,2,4,0.006919514028841005,0.9974860920946784,6.5075709738626895,0.399291899839139
cnn,2,5,0.00958702456551287,0.9963789195103775,8.271329979355931,0.29744867233745925
cnn,2,6,0.0033792864448875504,0.9992249264187585,7.3977716952791175,0.24533772741299922
cnn,2,7,0.0028182349264185063,0.9991847305529263,7.688304973000142,0.26403387426018415
cnn,2,8,0.010210918017526724,0.9973970127726703,8.258635298041385,0.30948007471980077
cnn,2,9,0.002638248930284929,0.9994013214127921,9.398800523591643,0.26897660168031584
cnn,2,10,0.0038191043333210386,0.999130398033472,9.569307414376269,0.15697987501052038
cnn,2,11,0.005727215132085962,0.9984013389903171,7.6046755851365795,0.24224827833957904
cnn,2,12,0.0027018229062320195,0.9989681396930606,6.96765021066688,0.2696778308909364
cnn,2,13,0.0016409638315831362,0.9996305740491973,8.035663477745013,0.3128679821802262
cnn,2,14,0.00046068780904573626,0.9999235824545316,9.621552416291719,0.26764715007724466
cnn,2,15,0.002916027608830744,0.9994777389582605,17.299597437411663,0.3333333333333333
cnn,2,16,0.007936278195620617,0.9971579672778148,8.69962978928703,0.20733309891267807
cnn,2,17,0.0025386016568974797,0.9990902021676398,10.17615070527146,0.3438676353042262
cnn,2,18,0.004000377533462608,0.99882907164677,8.352785737232116,0.29166278541190277
cnn,2,19,0.006445968798220657,0.9980485490022502,12.418353688704242,0.1742549952283747
cnn,2,20,0.00545561247155915,0.997955495494046,8.776715936516856,0.26882898918098747
cnn,2,21,0.0009078464982752486,0.9998152870245987,9.646809393202071,0.28085435867881847
cnn,2,22,8.337947306263087e-05,1.0,9.522925387853993,0.2779282967603826
cnn,2,23,0.00038117817227230946,1.0,10.398279880139363,0.3058409852895095
cnn,2,24,0.00014765153073770736,1.0,9.886390026196565,0.2680707833881821
cnn,3,1,0.1607814892143425,0.9432551648885319,1.6739952097258812,0.7727842582522385
cnn,3,2,0.029104121725281908,0.9908927012714518,1.8243023419306783,0.6283791764703094
cnn,3,3,0.015247075507206664,0.995435809872375,3.7722371162021426,0.5563253044164375
cnn,3,4,0.0183186729431096,0.9934895214311125,1.620089797711132,0.6620542156256443
cnn,3,5,0.010970620635138375,0.9965606823855615,2.250414364954565,0.6107160035731464
cnn,3,6,0.010429597850775785,0.9965109806221637,3.564999762576044,0.46264687693259116
cnn,3,7,0.005910349232310962,0.9982140853596682,2.839276348983131,0.5633907098192813
cnn,3,8,0.0075041476637413744,0.9972418933663495,4.183066324035158,0.5099453365463217
cnn,3,9,0.012427726432678542,0.9966988283071553,2.992212022603663,0.5770732779353469
cnn,3,10,0.002820377208176762,0.9988640135471449,2.9449945881898576,0.6137315863301085
cnn,3,11,0.008557641580357865,0.9974094176266294,2.23700083405196,0.6709011887583317
cnn,3,12,0.00547283997338459,0.9984580271654165,3.937074993532279,0.5763141027919353
cnn,3,13,0.006017269360137063,0.9983494141535777,3.9795411372878724,0.5702372363086649
cnn,3,14,0.01028951112991005,0.9965966076526755,3.36925268766997,0.5573541537827252
cnn,3,15,0.0020496532355782477,0.9993684907826097,4.28819859144909,0.5475426028997458
cnn,3,16,0.009983714976789045,0.9969013651614901,3.7740932035339476,0.5422679172679173
cnn,3,17,0.0028094314569652996,0.9987488536068782,3.1148231173763152,0.5655203216779571
cnn,3,18,0.006264984367016084,0.9974398632094438,3.0815528346560983,0.5895657252800109
cnn,3,19,0.0032860949757110894,0.9989165324382272,5.0694277504518555,0.48796468082182365
cnn,3,20,0.006992383426372302,0.9976892846994917,5.658342258934228,0.40855837284408714
cnn,3,21,0.003445568437279964,0.9986053825720537,2.9386586921035143,0.614898871425965
cnn,4,1,0.15500039067148738,0.943871800609128,2.769613600134868,0.5095183058540949
cnn,4,2,0.02812915053956757,0.9911721755212682,3.897952693323786,0.442384687956284
cnn,4,3,0.016219209937201755,0.9939462145744725,3.909066016399069,0.5021019267999185
cnn,4,4,0.023597299891561844,0.9922553292536013,3.847312896873072,0.4919161653457522
cnn,4,5,0.010426309112494677,0.996585612883413,5.071811103546483,0.5109039372751688
cnn,4,6,0.008462732692253434,0.9973649487421667,3.830489440686372,0.5338257203891159
cnn,4,7,0.009219386067415021,0.9964444994831781,5.055991661673296,0.4881688620011726
cnn,4,8,0.009520896210307928,0.9979455835626766,6.5714085408984415,0.4354102934882411
cnn,4,9,0.03143540886742609,0.9917461319911505,3.9853022720362983,0.5393719200726108
cnn,4,10,0.023536230623292864,0.9927000548327588,4.68051792465025,0.5159100714884944
cnn,4,11,0.005689398374945849,0.9978596306595509,3.991890330137498,0.5181700195591636
cnn,4,12,0.008030489589963557,0.9975998520399663,4.072017711739894,0.5570290050734868
cnn,4,13,0.011629475368725781,0.998288887944487,4.6528219830581605,0.5116198644266161
cnn,4,14,0.012727434327583755,0.9952480903850344,5.754512049986667,0.49620030699904216
cnn,4,15,0.004079383768389273,0.9984481024744998,5.129564882387982,0.5078891913070167
cnn,4,16,0.0028018922435336345,0.9989711496570006,6.037031752364594,0.4988809031537369
cnn,4,17,0.005940177632843125,0.9976111789777371,5.121501481307826,0.5395288656228752
cnn,4,18,0.013637144170610991,0.9975998520399663,4.600090216875785,0.5053308756099139
cnn,4,19,0.022890648140774204,0.992863266536796,4.6606933340322145,0.514215455907264
cnn,4,20,0.005265754969699147,0.9983578025202667,5.937710679873538,0.47918062982888343
cnn,4,21,0.005780709763333649,0.9981442846009204,4.898549391016958,0.4995336958561021
cnn,4,22,0.0040871601440891706,0.9988446474432119,4.667758956535069,0.5047841592909684
cnn,4,23,0.0022639412165882658,0.9992963529090332,5.404368911820251,0.49660757477517214
cnn,4,24,0.0008417738568304967,0.9997978090184244,5.6653616143863195,0.4944971001347737
cnn,4,25,0.008020045506197908,0.9973660115445986,4.836356359473883,0.5404222783797964
cnn,4,26,0.01245842365230568,0.9960501759607093,5.826172206524944,0.4986292114529445
cnn,4,27,0.004365857493590119,0.9985340553776254,5.204368083303644,0.5135704083924005
cnn,4,28,0.007160270591734983,0.9988446474432119,6.3449247943883815,0.508193831211363
cnn,4,29,0.017919790202004238,0.994750124218975,5.393489311075325,0.5106149801342975
cnn,4,30,0.004337182318397732,0.998787059805203,5.861985587750494,0.5128824396301319
cnn,4,31,0.006282744797715802,0.9978855687837678,4.899560556049915,0.5091119400282188
cnn,4,32,0.002228068614349536,0.9992601506494774,5.621091280445759,0.4978337906262495
cnn,5,1,0.15097616951895657,0.9440929049623943,3.5678809595545444,0.40716288839009956
cnn,5,2,0.0245622091780319,0.9921483061137466,3.5651276658093045,0.3405850356886923
cnn,5,3,0.01486738607648153,0.9954658733756888,2.619499594257766,0.40390894569194397
cnn,5,4,0.014722510495519982,0.9951052211295849,4.26927704139725,0.38811184561523143
cnn,5,5,0.008627682685369316,0.9966830507166925,4.089193553559816,0.33583351485476703
cnn,5,6,0.008968336652754877,0.9971148066879635,5.373728640897923,0.3680486235413832
cnn,5,7,0.010089198955703652,0.9963125361777591,4.424380962739022,0.3563485411464367
cnn,5,8,0.007439147459935348,0.9973313975478293,3.748843488947748,0.36919773313928955
cnn,5,9,0.004688215960198174,0.9987497423566868,5.597954646792174,0.3332583044740561
cnn,5,10,0.006028318473505561,0.9977097306524972,6.81096988046722,0.34135997436601667
cnn,5,11,0.005539605672537145,0.9981013955255498,6.547759753239487,0.3836674906161311
cnn,5,12,0.006941743221157201,0.9980029623884463,8.156745476741598,0.2876270255424334
cnn,5,13,0.006949505789893878,0.9974980589649132,6.4157496648383585,0.35282844593449864
cnn,5,14,0.005441766586030356,0.9980479726589465,5.284784638201373,0.36284445665110315
cnn,5,15,0.0017463152482025946,0.9995218080097684,6.324428162337064,0.31074751578710325
cnn,5,16,0.010439339615007884,0.9962309521811278,5.667703834772493,0.330523802458379
cnn,5,17,0.001056407173908537,0.9998101205734359,6.3523108120365315,0.3284547738032476
cnn,5,18,0.00926529878356418,0.9976232035353182,4.928275098558092,0.3461614267479462
cnn,5,19,0.0005200038954773021,1.0,6.0908073941470535,0.3476123880749362
cnn,5,20,0.00039235061189197456,1.0,5.913371403192319,0.3253031144868836
cnn,5,21,0.005318437799747878,0.9983011372449434,5.12172471646424,0.28567856394973806
