overfit_rank,rank,model,resolved_model,extra_input,cnn_epochs,cnn_patience,window_sec,hop_sec,overlap_pct,max_windows_fraction,overfit_stage,overfit_config_id,overfit_config_name,stage1_screen_group,stage1_regularization_factor,stage1_regularization_value,cnn_lr,cnn_weight_decay,cnn_dropout,cnn_label_smoothing,dynamic_data_mode,stage2_fixed_epoch,n_repeats,validation_subject_balanced_accuracy_mean,validation_subject_balanced_accuracy_std,validation_subject_balanced_accuracy_ci95_low,validation_subject_balanced_accuracy_ci95_high,validation_subject_balanced_accuracy_min,validation_subject_balanced_accuracy_max,validation_subject_macro_f1_mean,validation_subject_macro_f1_std,validation_subject_macro_f1_ci95_low,validation_subject_macro_f1_ci95_high,validation_subject_macro_f1_min,validation_subject_macro_f1_max,subject_balanced_accuracy_mean,subject_balanced_accuracy_std,subject_balanced_accuracy_ci95_low,subject_balanced_accuracy_ci95_high,subject_balanced_accuracy_min,subject_balanced_accuracy_max,subject_macro_f1_mean,subject_macro_f1_std,subject_macro_f1_ci95_low,subject_macro_f1_ci95_high,subject_macro_f1_min,subject_macro_f1_max,worst_class_recall_mean,worst_class_recall_std,worst_class_recall_ci95_low,worst_class_recall_ci95_high,worst_class_recall_min,worst_class_recall_max,worst_class_f1_mean,worst_class_f1_std,worst_class_f1_ci95_low,worst_class_f1_ci95_high,worst_class_f1_min,worst_class_f1_max,best_epoch_mean,best_epoch_std,best_epoch_ci95_low,best_epoch_ci95_high,best_epoch_min,best_epoch_max,duration_sec_mean,duration_sec_std,duration_sec_ci95_low,duration_sec_ci95_high,duration_sec_min,duration_sec_max,best_epoch_train_balanced_accuracy_mean,best_epoch_train_balanced_accuracy_std,best_epoch_train_balanced_accuracy_ci95_low,best_epoch_train_balanced_accuracy_ci95_high,best_epoch_train_balanced_accuracy_min,best_epoch_train_balanced_accuracy_max,best_epoch_val_balanced_accuracy_mean,best_epoch_val_balanced_accuracy_std,best_epoch_val_balanced_accuracy_ci95_low,best_epoch_val_balanced_accuracy_ci95_high,best_epoch_val_balanced_accuracy_min,best_epoch_val_balanced_accuracy_max,train_val_balanced_accuracy_gap_mean,train_val_balanced_accuracy_gap_std,train_val_balanced_accuracy_gap_ci95_low,train_val_balanced_accuracy_gap_ci95_high,train_val_balanced_accuracy_gap_min,train_val_balanced_accuracy_gap_max,best_epoch_train_loss_mean,best_epoch_train_loss_std,best_epoch_train_loss_ci95_low,best_epoch_train_loss_ci95_high,best_epoch_train_loss_min,best_epoch_train_loss_max,best_epoch_val_loss_mean,best_epoch_val_loss_std,best_epoch_val_loss_ci95_low,best_epoch_val_loss_ci95_high,best_epoch_val_loss_min,best_epoch_val_loss_max,val_train_loss_gap_mean,val_train_loss_gap_std,val_train_loss_gap_ci95_low,val_train_loss_gap_ci95_high,val_train_loss_gap_min,val_train_loss_gap_max
1,2,inceptiontime,inception_time,0,10,0,5.0,2.5,50.0,0.9,stage1,s1_085,main_effect_dropout-0p0_lr0.001_wd0.0005_do0_ls0.1_mw90_ep10,main_effect,dropout,0.0,0.001,0.0005,0.0,0.1,static_only,0,5,0.6231481481481482,0.06995184998892041,0.5363053788212657,0.7099909174750307,0.5370370370370371,0.7083333333333334,0.6257815229594743,0.07700891353659431,0.5301776566509842,0.7213853892679645,0.5238095238095238,0.7050915331807781,0.6231481481481482,0.06995184998892041,0.5363053788212657,0.7099909174750307,0.5370370370370371,0.7083333333333334,0.6257815229594743,0.07700891353659431,0.5301776566509842,0.7213853892679645,0.5238095238095238,0.7050915331807781,0.49722222222222223,0.11553685746158569,0.35378726427788487,0.6406571801665596,0.3333333333333333,0.625,0.5262652096411686,0.11840175189720176,0.3792735856950389,0.6732568335872984,0.36363636363636365,0.6666666666666666,10.0,0.0,10.0,10.0,10.0,10.0,141.84506332222372,5.235491523373022,135.3453841464886,148.34474249795883,133.2021940164268,145.98200825974345,0.9985835158530796,0.0002655394350160796,0.9982538579540255,0.9989131737521336,0.9982690796708896,0.998993630265554,0.5587153750325096,0.017810203021774336,0.5366046323869631,0.580826117678056,0.5346292143740593,0.583458162831925,0.43986814082057013,0.017975734739271016,0.4175518963511101,0.46218438529003014,0.41481091683896465,0.46398809013166276,0.31019158388743084,0.0009112741528102193,0.3090602689749792,0.3113228987998825,0.3088136287988206,0.31108385607952826,1.2244382776291975,0.07127085636090125,1.135958008134403,1.3129185471239921,1.1466518296996042,1.3159402931340913,0.9142466937417666,0.07195859509768501,0.8249126207166131,1.00358076676692,0.8365024202697959,1.0071266643352708
2,2,inceptiontime,inception_time,0,10,0,5.0,2.5,50.0,0.9,stage1,s1_091,main_effect_dropout-0p7_lr0.001_wd0.0005_do0.7_ls0.1_mw90_ep10,main_effect,dropout,0.7,0.001,0.0005,0.7,0.1,static_only,0,5,0.6212962962962962,0.05107301989082079,0.5578909326653366,0.6847016599272558,0.5648148148148148,0.6712962962962963,0.6219408948240555,0.04117067723899425,0.5708289424301758,0.6730528472179351,0.5703661327231121,0.6650326797385621,0.6212962962962962,0.05107301989082079,0.5578909326653366,0.6847016599272558,0.5648148148148148,0.6712962962962963,0.6219408948240555,0.04117067723899425,0.5708289424301758,0.6730528472179351,0.5703661327231121,0.6650326797385621,0.5,0.07081971546656647,0.412079806109022,0.5879201938909779,0.4166666666666667,0.5833333333333334,0.5299089026915114,0.06210290067352716,0.4528103287642222,0.6070074766188005,0.43478260869565216,0.5833333333333334,10.0,0.0,10.0,10.0,10.0,10.0,141.53674943484367,1.9746511896279666,139.08528921200357,143.98820965768377,139.149484786205,143.1055106567219,0.9931553272823989,0.00022158210755007982,0.9928802408642986,0.9934304137004991,0.9929706798493767,0.9934709484412126,0.5690632367895169,0.04140165116883235,0.5176645383594333,0.6204619352196005,0.5026627657689106,0.615691742233776,0.4240920904928821,0.04138576380108613,0.37271311567286197,0.47547106531290223,0.3772789376156007,0.49031907164013266,0.3466192946972132,0.0006574872495100682,0.345803047327721,0.3474355420667054,0.3455942926435011,0.34727367561725764,1.2150599783770564,0.08461800177498914,1.1100096957868026,1.32011026096731,1.105079328763477,1.32023624337381,0.8684406836798434,0.08410991357351381,0.7640211747787119,0.9728601925809749,0.7594850361199759,0.9729625677565523
3,2,inceptiontime,inception_time,0,10,0,5.0,2.5,50.0,0.9,stage1,s1_105,strong_combo_combined_regularization-wd0p005_do0p5_ls0p2_mw0p9_lr0.001_wd0.005_do0.5_ls0.2_mw90_ep10,strong_combo,combined_regularization,wd0.005_do0.5_ls0.2_mw0.9,0.001,0.005,0.5,0.2,static_only,0,5,0.6157407407407407,0.037753487107176124,0.568871110092613,0.6626103713888684,0.5601851851851852,0.6574074074074074,0.6253964850154109,0.03887824572457052,0.5771305059765791,0.6736624640542427,0.5750000000000001,0.6678733031674208,0.6157407407407407,0.037753487107176124,0.568871110092613,0.6626103713888684,0.5601851851851852,0.6574074074074074,0.6253964850154109,0.03887824572457052,0.5771305059765791,0.6736624640542427,0.5750000000000001,0.6678733031674208,0.475,0.06832429931249358,0.39017777777777773,0.5598222222222222,0.375,0.5555555555555556,0.5411125319693094,0.063829670605771,0.46187023370978036,0.6203548302288385,0.47058823529411764,0.625,10.0,0.0,10.0,10.0,10.0,10.0,132.3955298099667,0.4003395755597634,131.89852226237124,132.89253735756213,131.94215413369238,133.00675123278052,0.9960829191060541,0.00048677022482855196,0.9954786109375542,0.9966872272745539,0.9955470594836366,0.9967629615883535,0.5606854120659601,0.023291067459326617,0.5317703683742274,0.5896004557576928,0.5421087461711214,0.5916380456740649,0.43539750704009406,0.023143617027962034,0.40666551788945177,0.46412949619073635,0.4051249159142887,0.4535699554569218,0.5220549598820255,0.0009921096804349587,0.5208232904960318,0.5232866292680193,0.5206467083746202,0.5231648853064048,1.146363741551753,0.00774513953979581,1.136748422349108,1.1559790607543978,1.138237933049137,1.1572555115565426,0.6243087816697276,0.007909792729253524,0.6144890513049293,0.6341285120345259,0.6150730477427322,0.6344417197736139
4,2,inceptiontime,inception_time,0,15,0,5.0,2.5,50.0,0.9,stage1,s1_163,main_effect_dropout-0p5_lr0.001_wd0.0005_do0.5_ls0.1_mw90_ep15,main_effect,dropout,0.5,0.001,0.0005,0.5,0.1,static_only,0,5,0.612037037037037,0.030604618298219314,0.574042476383809,0.6500315976902651,0.5879629629629629,0.6574074074074074,0.6168286224227805,0.029222468344174073,0.5805499524808534,0.6531072923647075,0.5921052631578947,0.6569607843137256,0.612037037037037,0.030604618298219314,0.574042476383809,0.6500315976902651,0.5879629629629629,0.6574074074074074,0.6168286224227805,0.029222468344174073,0.5805499524808534,0.6531072923647075,0.5921052631578947,0.6569607843137256,0.5444444444444445,0.024845199749997673,0.5136000000000001,0.575288888888889,0.5,0.5555555555555556,0.5568332062039156,0.04127009642820288,0.50559782837216,0.6080685840356712,0.5217391304347826,0.625,15.0,0.0,15.0,15.0,15.0,15.0,215.21800370104611,3.2770861477454134,211.1496161396299,219.28639126246233,211.54926533903927,218.50084792170674,0.9977959036089242,0.00027990264756816674,0.997448414285045,0.9981433929328034,0.9973510996851376,0.9980325802989883,0.5667939360100475,0.04559112873537244,0.5101941480595464,0.6233937239605485,0.5151174230211959,0.6340191607415266,0.43100196759887693,0.04543007524552232,0.3746021219096679,0.48740181328808596,0.36388513243732945,0.4822336766639417,0.32103060398193217,0.000683057531780496,0.320182612003467,0.32187859596039736,0.32049673790197464,0.32215098743976006,1.2488436883946659,0.06051440630588904,1.1737171745339467,1.323970202255385,1.1609189801217557,1.3070139614896201,0.9278130844127336,0.06036113534980776,0.8528768510704795,1.0027493177549875,0.8397319567136052,0.98486297404986
5,2,inceptiontime,inception_time,0,10,0,5.0,2.5,50.0,0.9,stage1,s1_079,main_effect_weight_decay-0p0001_lr0.001_wd0.0001_do0.2_ls0.1_mw90_ep10,main_effect,weight_decay,0.0001,0.001,0.0001,0.2,0.1,static_only,0,5,0.6064814814814816,0.04049272149198126,0.5562111873791412,0.656751775583822,0.5601851851851852,0.6620370370370371,0.6126155457391156,0.0365184878531369,0.567279123367172,0.6579519681110592,0.5643274853801169,0.6634615384615384,0.6064814814814816,0.04049272149198126,0.5562111873791412,0.656751775583822,0.5601851851851852,0.6620370370370371,0.6126155457391156,0.0365184878531369,0.567279123367172,0.6579519681110592,0.5643274853801169,0.6634615384615384,0.47777777777777775,0.030429030972509243,0.4400012026335216,0.5155543529220339,0.4444444444444444,0.5,0.5154589371980677,0.024311087227219585,0.4852775747252589,0.5456402996708765,0.5,0.5555555555555556,10.0,0.0,10.0,10.0,10.0,10.0,143.6554935593158,0.4105056396519367,143.14586519956086,144.16512191907074,143.06494787428528,144.2124540330842,0.9973744810680076,0.00023177111794090447,0.9970867453507226,0.9976622167852927,0.9971469818208938,0.9977607595539746,0.5546819500383747,0.04052208113252806,0.5043752069716119,0.6049886931051376,0.5033160570342564,0.6092519973632533,0.44269253102963296,0.04031076631648764,0.392648127898521,0.49273693416074493,0.3885087621907213,0.49383092478663737,0.3177667705205554,0.0006496456287123473,0.31696025824836505,0.31857328279274577,0.31677911882372045,0.3185115825485788,1.2126155813327344,0.05070581531318438,1.1496660893111248,1.275565073354344,1.178003139410673,1.3011915564616001,0.894848810812179,0.05055298276242699,0.8320890550441948,0.9576085665801632,0.8612240205869525,0.9831794735915257
6,2,inceptiontime,inception_time,0,10,0,5.0,2.5,50.0,0.9,stage1,s1_075,main_effect_baseline-base_lr0.001_wd0.0005_do0.2_ls0.1_mw90_ep10,main_effect,baseline,base,0.001,0.0005,0.2,0.1,static_only,0,5,0.6046296296296296,0.053451675545820816,0.5382712483960195,0.6709880108632398,0.5555555555555555,0.6898148148148149,0.6124108514157423,0.056701159758817725,0.5420183494550129,0.6828033533764716,0.5610025062656642,0.6999999999999998,0.6046296296296296,0.053451675545820816,0.5382712483960195,0.6709880108632398,0.5555555555555555,0.6898148148148149,0.6124108514157423,0.056701159758817725,0.5420183494550129,0.6828033533764716,0.5610025062656642,0.6999999999999998,0.48888888888888893,0.04648111258522644,0.4311842171906419,0.5465935605871359,0.4444444444444444,0.5555555555555556,0.5121125319693094,0.04687627776835701,0.45391727655025926,0.5703077873883595,0.47058823529411764,0.5882352941176471,10.0,0.0,10.0,10.0,10.0,10.0,144.53521103933454,0.9135084625750701,143.40112230964223,145.66929976902685,143.52210613992065,145.55854800902307,0.9971706780016195,0.0002066881103664478,0.9969140819588558,0.9974272740443832,0.9968719141101084,0.9973932949866848,0.5604420864901704,0.030799101266507277,0.5222060820501702,0.5986780909301705,0.52220340877232,0.5948888120004483,0.43672859151144916,0.030837643477572247,0.398444738267659,0.4750124447552393,0.40250448298623653,0.4751157602517797,0.31809512447616944,0.0008293858210745713,0.3170654710566534,0.3191247778956855,0.31705170451473463,0.3192660065584575,1.1742956656761723,0.06287393751072635,1.0962398765471977,1.2523514548051469,1.0987336379217472,1.2618632622313413,0.8562005412000027,0.06339600330824982,0.7774966256864512,0.9349044567135542,0.7794676313632897,0.9442340736363681
7,2,inceptiontime,inception_time,0,10,0,5.0,2.5,50.0,0.9,stage1,s1_077,main_effect_weight_decay-1em05_lr0.001_wd1e-05_do0.2_ls0.1_mw90_ep10,main_effect,weight_decay,1e-05,0.001,1e-05,0.2,0.1,static_only,0,5,0.6037037037037039,0.06103390184324816,0.5279322543462914,0.6794751530611163,0.5,0.6620370370370371,0.6117921668592463,0.06727939148334766,0.5282671610735978,0.6953171726448948,0.4936274509803922,0.6620370370370371,0.6037037037037039,0.06103390184324816,0.5279322543462914,0.6794751530611163,0.5,0.6620370370370371,0.6117921668592463,0.06727939148334766,0.5282671610735978,0.6953171726448948,0.4936274509803922,0.6620370370370371,0.5222222222222221,0.10650160840378232,0.3900042092173257,0.6544402352271186,0.3333333333333333,0.5833333333333334,0.5247076023391812,0.08694898123446157,0.41676349047155,0.6326517142068125,0.375,0.5833333333333334,10.0,0.0,10.0,10.0,10.0,10.0,144.17561547514052,0.49700540445473995,143.5586006899688,144.79263026031222,143.71282984130085,145.0261593842879,0.9972788520806919,0.0004282330950237414,0.9967472157065977,0.997810488454786,0.9968491731748476,0.997838041579025,0.5573045286958302,0.02191913099377973,0.5300926960275015,0.584516361364159,0.5291880740997417,0.5796457908127793,0.4399743233848616,0.02199313456293271,0.4126706178799126,0.46727802888981057,0.4172572439771731,0.46839371640551364,0.3181009208125528,0.0012042806702869838,0.3166058485811376,0.319595993043968,0.31648751166521283,0.319352703558727,1.18598063102884,0.06752946099582613,1.1021451727106097,1.2698160893470705,1.0993853674230754,1.2715584915990923,0.8678797102162873,0.06839704296291324,0.7829671793023809,0.9527922411301937,0.7805428362185167,0.954357822847284
8,2,inceptiontime,inception_time,0,15,0,5.0,2.5,50.0,0.9,stage1,s1_165,main_effect_dropout-0p7_lr0.001_wd0.0005_do0.7_ls0.1_mw90_ep15,main_effect,dropout,0.7,0.001,0.0005,0.7,0.1,static_only,0,5,0.6037037037037036,0.03936546605459504,0.5548328577065514,0.6525745497008558,0.5509259259259259,0.6574074074074074,0.6002175914784161,0.03490889301548389,0.5568794246668071,0.6435557582900252,0.5617283950617283,0.6574074074074074,0.6037037037037036,0.03936546605459504,0.5548328577065514,0.6525745497008558,0.5509259259259259,0.6574074074074074,0.6002175914784161,0.03490889301548389,0.5568794246668071,0.6435557582900252,0.5617283950617283,0.6574074074074074,0.47777777777777775,0.09296222517045286,0.36236843438128374,0.5931871211742717,0.3333333333333333,0.5555555555555556,0.5007220950928045,0.059684426809166295,0.4266259716791051,0.5748182185065039,0.4,0.5555555555555556,15.0,0.0,15.0,15.0,15.0,15.0,211.97883568573744,1.3783612029614232,210.26764857607753,213.69002279539734,210.0535886315629,213.5692579448223,0.9969051897663936,0.0004966948272106963,0.9962885605519819,0.9975218189808054,0.9964400839314674,0.9977248374835377,0.5658990869187024,0.01868948264075284,0.5426967494527634,0.5891014243846414,0.5464114843898384,0.5968763078470276,0.43100610284769114,0.018281617840553124,0.408310115231912,0.45370209046347026,0.4008485296365101,0.4503911600443825,0.33483795562088464,0.0011837453986257814,0.33336837720929297,0.3363075340324763,0.3335035328039132,0.336464510437405,1.2343078238416263,0.07823995563369004,1.137175661928564,1.3314399857546886,1.1185419486579256,1.3342648514319593,0.8994698682207416,0.07731201922997792,0.8034897068204655,0.9954500296210177,0.7850384158540124,0.9978003409945543
9,2,inceptiontime,inception_time,0,10,0,5.0,2.5,50.0,0.7,stage1,s1_099,main_effect_max_windows_fraction-0p7_lr0.001_wd0.0005_do0.2_ls0.1_mw70_ep10,main_effect,max_windows_fraction,0.7,0.001,0.0005,0.2,0.1,static_only,0,5,0.6027777777777776,0.08438127104166128,0.4980213880934333,0.7075341674621219,0.5092592592592592,0.6944444444444443,0.6099287283794844,0.08710895141821168,0.5017860191371049,0.718071437621864,0.5261158594491927,0.7016687016687017,0.6027777777777776,0.08438127104166128,0.4980213880934333,0.7075341674621219,0.5092592592592592,0.6944444444444443,0.6099287283794844,0.08710895141821168,0.5017860191371049,0.718071437621864,0.5261158594491927,0.7016687016687017,0.5277777777777779,0.10015420209622192,0.4034398471706847,0.6521157083848711,0.4166666666666667,0.6666666666666666,0.5243834223239258,0.08344583626109034,0.4207883421243532,0.6279785025234983,0.43478260869565216,0.631578947368421,10.0,0.0,10.0,10.0,10.0,10.0,104.47840094305575,0.5683623431648891,103.77279902017061,105.18400286594088,103.6606307439506,105.08452893979847,0.9963131930109931,0.000478611821502263,0.9957190132141982,0.996907372807788,0.995865475366446,0.9971168840735929,0.5627179582094691,0.029997014763996424,0.525477716042072,0.5999582003768662,0.5378243105597781,0.6041078302742455,0.43359523480152384,0.030288393479785427,0.39599325617388964,0.47119721342915805,0.39175764509220046,0.4583001616753576,0.32219347742025184,0.0009322637099635937,0.3210361047084649,0.3233508501320388,0.32084466157734515,0.3230933974152168,1.1976817465620386,0.06607883455825748,1.115647190108694,1.2797163030153833,1.1317952839480114,1.3037499042495777,0.8754882691417867,0.066656269725945,0.7927368471719952,0.9582396911115781,0.8091164016614154,0.9829052426722326
10,2,inceptiontime,inception_time,0,15,0,5.0,2.5,50.0,0.7,stage1,s1_183,strong_combo_combined_regularization-wd0p01_do0p6_ls0p3_mw0p7_lr0.001_wd0.01_do0.6_ls0.3_mw70_ep15,strong_combo,combined_regularization,wd0.01_do0.6_ls0.3_mw0.7,0.001,0.01,0.6,0.3,static_only,0,5,0.6027777777777776,0.04576079182648731,0.5459673590478574,0.6595881965076978,0.5416666666666666,0.6527777777777778,0.5991478174454797,0.03961087046553501,0.5499723104757523,0.6483233244152071,0.5532731611162984,0.6468253968253969,0.6027777777777776,0.04576079182648731,0.5459673590478574,0.6595881965076978,0.5416666666666666,0.6527777777777778,0.5991478174454797,0.03961087046553501,0.5499723104757523,0.6483233244152071,0.5532731611162984,0.6468253968253969,0.4111111111111111,0.09086348463220073,0.298307280513339,0.5239149417088832,0.3333333333333333,0.5555555555555556,0.4500368568480024,0.06313536967177219,0.3716565088566113,0.5284172048393935,0.35294117647058826,0.5,15.0,0.0,15.0,15.0,15.0,15.0,172.55563913788646,0.5923388710142994,171.8202711962668,173.29100707950613,171.95506584458053,173.36853515077382,0.9967761088700406,0.0002573618675107679,0.996456603134348,0.9970956146057333,0.9964736828420202,0.9970818550252618,0.5611916090288621,0.02736057893159697,0.5272244095168694,0.5951588085408548,0.5307322021294845,0.6042478363048126,0.43558449984117864,0.027501318619585643,0.4014425769407256,0.4697264227416317,0.3923559578009236,0.4662626172064811,0.6754733226703101,0.0007076451278011569,0.6745948060533992,0.6763518392872211,0.6744400482328337,0.676337518977708,1.1209684136775881,0.024747627985833884,1.090245101157595,1.1516917261975812,1.082750753700777,1.1421839187947342,0.445495091007278,0.024715086843583894,0.41481217717453195,0.4761780048400241,0.40743888474511725,0.4677438705619006
11,2,inceptiontime,inception_time,0,15,0,5.0,2.5,50.0,0.9,stage1,s1_181,strong_combo_combined_regularization-wd0p01_do0p6_ls0p3_mw0p9_lr0.001_wd0.01_do0.6_ls0.3_mw90_ep15,strong_combo,combined_regularization,wd0.01_do0.6_ls0.3_mw0.9,0.001,0.01,0.6,0.3,static_only,0,5,0.6027777777777776,0.061801654059130504,0.5260531909608894,0.6795023645946658,0.5185185185185185,0.6805555555555555,0.5927468792107371,0.07407068646884178,0.500790718795876,0.6847030396255982,0.4862155388471178,0.6834054834054833,0.6027777777777776,0.061801654059130504,0.5260531909608894,0.6795023645946658,0.5185185185185185,0.6805555555555555,0.5927468792107371,0.07407068646884178,0.500790718795876,0.6847030396255982,0.4862155388471178,0.6834054834054833,0.4333333333333333,0.10865337342004415,0.29844397949924534,0.5682226871674212,0.25,0.5,0.47618255123975944,0.09310659534767576,0.36059397732970166,0.5917711251498172,0.3157894736842105,0.5454545454545454,15.0,0.0,15.0,15.0,15.0,15.0,221.7977719610557,0.8958300142030294,220.68563040523046,222.90991351688095,220.45184089336544,222.61260140128434,0.9976407549593083,0.0002881104266529102,0.9972830759654511,0.9979984339531655,0.9973128213812703,0.9979972359482534,0.568669837440291,0.02447548764194136,0.5382843776163015,0.5990552972642804,0.5316043298547272,0.5957517777219028,0.428970917519017,0.02424118558521685,0.3988763354840805,0.4590654995539535,0.4022454582263506,0.465773428767444,0.6733654882815724,0.0003977095982148264,0.6728717457586466,0.6738592308044982,0.672698899025829,0.6737154696296833,1.1266077165100583,0.024406640965082348,1.096307727421701,1.1569077055984156,1.0899559450647713,1.1506083889923793,0.4532422282284859,0.024161384577158017,0.42324671634731953,0.4832377401096523,0.4172570460389423,0.47715226120099175
12,2,inceptiontime,inception_time,0,15,0,5.0,2.5,50.0,0.9,stage1,s1_160,main_effect_dropout-0p1_lr0.001_wd0.0005_do0.1_ls0.1_mw90_ep15,main_effect,dropout,0.1,0.001,0.0005,0.1,0.1,static_only,0,5,0.600925925925926,0.04158943459532537,0.5492941009553303,0.6525577508965217,0.5509259259259259,0.6666666666666666,0.6070305279590513,0.03820407212414625,0.5596015118093668,0.6544595441087359,0.5651127819548872,0.6692640692640692,0.600925925925926,0.04158943459532537,0.5492941009553303,0.6525577508965217,0.5509259259259259,0.6666666666666666,0.6070305279590513,0.03820407212414625,0.5596015118093668,0.6544595441087359,0.5651127819548872,0.6692640692640692,0.49444444444444446,0.05692750425533113,0.423770943726681,0.5651179451622079,0.4444444444444444,0.5833333333333334,0.4969617137472838,0.056183212740424975,0.42721222485124044,0.5667112026433272,0.42105263157894735,0.5714285714285714,15.0,0.0,15.0,15.0,15.0,15.0,214.99940079040826,2.044957299512558,212.46065799700077,217.53814358381575,212.74709434248507,217.12745119072497,0.9987945163777624,0.0002479158098468926,0.9984867375914911,0.9991022951640337,0.9984730912847766,0.9991417213953158,0.552644665459556,0.03278019328490499,0.5119492047336065,0.5933401261855056,0.5002935230768466,0.5842733959964665,0.4461498509182066,0.0325699694560516,0.40571537570556393,0.48658432613084923,0.4148683253988492,0.49817956820792997,0.3097069293961284,0.0007664607219942023,0.3087553952810364,0.31065846351122045,0.30887251931723425,0.31087458755913666,1.2272484455233166,0.06497282145831682,1.1465869655579544,1.3079099254886788,1.1696650965041782,1.3224050645261518,0.917541516127188,0.06423058390517258,0.837801498062028,0.9972815341923481,0.8607925771869439,1.0115304769670153
13,2,inceptiontime,inception_time,0,15,0,5.0,2.5,50.0,0.9,stage1,s1_178,strong_combo_combined_regularization-wd0p005_do0p4_ls0p15_mw0p9_lr0.001_wd0.005_do0.4_ls0.15_mw90_ep15,strong_combo,combined_regularization,wd0.005_do0.4_ls0.15_mw0.9,0.001,0.005,0.4,0.15,static_only,0,5,0.6009259259259259,0.041070842807809003,0.5499379144782781,0.6519139373735736,0.5370370370370371,0.6435185185185185,0.5990473256820006,0.05304625397192772,0.5331922611187475,0.6649023902452537,0.5182539682539683,0.6563958916900093,0.6009259259259259,0.041070842807809003,0.5499379144782781,0.6519139373735736,0.5370370370370371,0.6435185185185185,0.5990473256820006,0.05304625397192772,0.5331922611187475,0.6649023902452537,0.5182539682539683,0.6563958916900093,0.48888888888888893,0.10865337342004418,0.353999535054801,0.6237782427229769,0.3333333333333333,0.5833333333333334,0.5116672608437314,0.0804011469221912,0.411852055714967,0.6114824659724958,0.4,0.5882352941176471,15.0,0.0,15.0,15.0,15.0,15.0,217.18874213173984,1.9066222429078798,214.82173746123323,219.55574680224646,215.27085379417986,219.64683430828154,0.9982472744421091,0.00021190146322441,0.9979842062045465,0.9985103426796718,0.9979104996158197,0.9984712813745384,0.5467816816335829,0.019625498668543895,0.5224173130848262,0.5711460501823395,0.5192635647160391,0.5742280584437849,0.4514655928085262,0.019480431288400903,0.42728132032631544,0.475649865290737,0.42406166385556077,0.4786469348997806,0.42122251275193345,0.0003930467602885835,0.4207345589788191,0.4217104665250478,0.42083438059481126,0.42179473483750146,1.1994504577115923,0.040889990083425316,1.1486869685807708,1.2502139468424138,1.1440267261270818,1.259060992736129,0.7782279449596585,0.04093324392237738,0.7274107577042097,0.8290451322151073,0.7230828673742881,0.8382266121413177
14,2,inceptiontime,inception_time,0,12,0,5.0,2.5,50.0,0.9,stage1,s1_148,strong_combo_combined_regularization-wd0p01_do0p6_ls0p3_mw0p9_lr0.0005_wd0.01_do0.6_ls0.3_mw90_ep12,strong_combo,combined_regularization,wd0.01_do0.6_ls0.3_mw0.9,0.0005,0.01,0.6,0.3,static_only,0,5,0.6009259259259259,0.08008054929792463,0.501508731507891,0.7003431203439607,0.47685185185185186,0.6805555555555555,0.5862661886903373,0.08005154117261067,0.48688500684288694,0.6856473705377877,0.4518518518518519,0.6649859943977591,0.6009259259259259,0.08008054929792463,0.501508731507891,0.7003431203439607,0.47685185185185186,0.6805555555555555,0.5862661886903373,0.08005154117261067,0.48688500684288694,0.6856473705377877,0.4518518518518519,0.6649859943977591,0.42777777777777776,0.1296957503325417,0.26676505072924617,0.5887905048263093,0.25,0.5555555555555556,0.4774942704354469,0.10665442923966643,0.3450865357205295,0.6099020051503643,0.3,0.5714285714285714,12.0,0.0,12.0,12.0,12.0,12.0,166.37517638728022,0.3150773432742053,165.98401891186788,166.76633386269256,166.0934406844899,166.8316784473136,0.9967413999414598,0.00046722811870411103,0.9961613526125889,0.9973214472703308,0.9960155763283118,0.9972787434416253,0.5649733178776015,0.046253743576573164,0.507550916832292,0.622395718922911,0.5180026421556979,0.629423469301581,0.431768082063858,0.04612906074491148,0.37450047038281453,0.4890356937449015,0.3674885808297007,0.4780129341726139,0.6773742106222492,0.0007113031892906996,0.6764911526502466,0.6782572685942518,0.676662965972001,0.678360199814406,1.1463282596368187,0.047955244865903905,1.0867935043935553,1.2058630148800822,1.0800013361729826,1.2006771493275112,0.46895404901456966,0.047554717751919474,0.40991653414128093,0.5279915638878584,0.4031425819251304,0.5223169495131053
15,2,inceptiontime,inception_time,0,15,0,5.0,2.5,50.0,0.9,stage1,s1_158,main_effect_weight_decay-0p02_lr0.001_wd0.02_do0.2_ls0.1_mw90_ep15,main_effect,weight_decay,0.02,0.001,0.02,0.2,0.1,static_only,0,5,0.6,0.07040995475353654,0.512588509668492,0.687411490331508,0.5509259259259259,0.7222222222222222,0.6081045928042832,0.0690931258278859,0.5223278994174072,0.6938812861911592,0.5610025062656642,0.7288888888888888,0.6,0.07040995475353654,0.512588509668492,0.687411490331508,0.5509259259259259,0.7222222222222222,0.6081045928042832,0.0690931258278859,0.5223278994174072,0.6938812861911592,0.5610025062656642,0.7288888888888888,0.5,0.09622504486493762,0.38053998034364683,0.6194600196563532,0.4444444444444444,0.6666666666666666,0.5012287581699345,0.09381913444743546,0.38475559194835646,0.6177019243915125,0.4444444444444444,0.6666666666666666,15.0,0.0,15.0,15.0,15.0,15.0,213.87639618702232,0.31803734844128295,213.48156396896957,214.27122840507508,213.47679005004466,214.2873945599422,0.9985810872410916,0.0004259010080628832,0.9980523460711991,0.9991098284109842,0.9980807265023234,0.9990136224400545,0.5683469011190345,0.03790621719550109,0.5212876614207992,0.6154061408172699,0.5331200639400444,0.6234950004425682,0.43023418612205705,0.0377740875664989,0.38333898072590944,0.47712939151820466,0.37524739003497043,0.46589355850001013,0.3120859699094663,0.0009137482780018108,0.3109515834573294,0.3132203563616032,0.31112059344767173,0.3132367754102231,1.2223276432835157,0.06990047180026948,1.135548658176581,1.3091066283904504,1.126560556568777,1.3192784208097266,0.9102416733740494,0.0695390206594078,0.8239114171864178,0.996571929561681,0.8154399631211053,1.007454003963474
16,2,inceptiontime,inception_time,0,15,0,5.0,2.5,50.0,0.9,stage1,s1_185,strong_combo_combined_regularization-wd0p01_do0p6_ls0p3_mw0p9_lr0.0005_wd0.01_do0.6_ls0.3_mw90_ep15,strong_combo,combined_regularization,wd0.01_do0.6_ls0.3_mw0.9,0.0005,0.01,0.6,0.3,static_only,0,5,0.5981481481481482,0.06266268265069866,0.5203546245215366,0.6759416717747598,0.5231481481481481,0.6898148148148149,0.5874043817284271,0.04858094413714128,0.5270928427762457,0.6477159206806086,0.5329311211664153,0.6620696125340088,0.5981481481481482,0.06266268265069866,0.5203546245215366,0.6759416717747598,0.5231481481481481,0.6898148148148149,0.5874043817284271,0.04858094413714128,0.5270928427762457,0.6477159206806086,0.5329311211664153,0.6620696125340088,0.4111111111111111,0.04564354645876384,0.35444624839472694,0.46777597382749525,0.3333333333333333,0.4444444444444444,0.4726904674273095,0.041053503360998986,0.42172398229497465,0.5236569525596444,0.42105263157894735,0.5263157894736842,15.0,0.0,15.0,15.0,15.0,15.0,221.44211477413774,0.8795413408063044,220.3501950352717,222.53403451300377,220.0017863335088,222.36053069215268,0.9977430640375857,0.0001514750073923659,0.997555013126454,0.9979311149487174,0.9975757437884163,0.9979673775836518,0.5685993948557403,0.033470644385671725,0.5270467632946394,0.6101520264168412,0.5313391625057878,0.5976387922890766,0.4291436691818453,0.03341141176975114,0.38766457283678,0.4706227655269106,0.40032858529457527,0.46623658128262846,0.6745842196933939,0.0003076345620443489,0.6742023021699427,0.6749661372168451,0.6741932520244921,0.6748542320428064,1.1306958965873626,0.025437767358561725,1.0991158002316497,1.1622759929430755,1.104088436042115,1.1712420289786585,0.45611167689396853,0.025226225525585545,0.4247942023074733,0.4874291514804638,0.42976625986116335,0.4963877969358521
17,2,inceptiontime,inception_time,0,5,0,5.0,2.5,50.0,0.7,stage1,s1_034,strong_combo_combined_regularization-wd0p005_do0p5_ls0p2_mw0p7_lr0.001_wd0.005_do0.5_ls0.2_mw70_ep5,strong_combo,combined_regularization,wd0.005_do0.5_ls0.2_mw0.7,0.001,0.005,0.5,0.2,static_only,0,5,0.5962962962962963,0.03795166950355407,0.5491806291511208,0.6434119634414719,0.5601851851851852,0.6574074074074074,0.6063092277320302,0.033626615983579945,0.5645629629003177,0.6480554925637427,0.5643274853801169,0.6574074074074074,0.5962962962962963,0.03795166950355407,0.5491806291511208,0.6434119634414719,0.5601851851851852,0.6574074074074074,0.6063092277320302,0.033626615983579945,0.5645629629003177,0.6480554925637427,0.5643274853801169,0.6574074074074074,0.4722222222222222,0.055555555555555566,0.4032519477162287,0.5411924967282157,0.4166666666666667,0.5555555555555556,0.49613784907902553,0.03854544820727225,0.4482850264904073,0.5439906716676437,0.45454545454545453,0.5555555555555556,5.0,0.0,5.0,5.0,5.0,5.0,51.30003768615425,0.23745212042200475,51.005249203458604,51.59482616884989,51.01814724225551,51.636755395680666,0.9872642024505991,0.000864456896990822,0.986191009519886,0.9883373953813122,0.9859805144480424,0.9880834803435254,0.5520655006299892,0.03627470197291968,0.5070317298814724,0.5970992713785059,0.5074007185807854,0.5972067752807115,0.43519870182061,0.03611403568968512,0.39036439262994704,0.48003301101127294,0.3907608569338773,0.48068276176274005,0.5425982950906024,0.0013889481707935936,0.5408739646315462,0.5443226255496586,0.5412990213140947,0.5445504615259349,1.1439804880295001,0.04554912449890135,1.087432846865956,1.2005281291930443,1.0871307681121771,1.1909650694888323,0.6013821929388978,0.04515374395014153,0.545325402865035,0.6574389830127607,0.5448151900971632,0.6496660481747376
18,2,inceptiontime,inception_time,0,12,0,5.0,2.5,50.0,0.9,stage1,s1_112,main_effect_baseline-base_lr0.001_wd0.0005_do0.2_ls0.1_mw90_ep12,main_effect,baseline,base,0.001,0.0005,0.2,0.1,static_only,0,5,0.5962962962962963,0.06591331027857188,0.5144672324330835,0.6781253601595092,0.5,0.6620370370370371,0.5999128399960043,0.06460631900734204,0.5197063599743573,0.6801193200176513,0.5059523809523809,0.6725925925925926,0.5962962962962963,0.06591331027857188,0.5144672324330835,0.6781253601595092,0.5,0.6620370370370371,0.5999128399960043,0.06460631900734204,0.5197063599743573,0.6801193200176513,0.5059523809523809,0.6725925925925926,0.41666666666666663,0.04811252243246881,0.35693665683849,0.47639667649484324,0.3333333333333333,0.4444444444444444,0.45800653594771246,0.05186332167497267,0.3936200403588333,0.5223930315365916,0.375,0.5,12.0,0.0,12.0,12.0,12.0,12.0,160.7705786369741,0.5151161709658032,160.13107997012233,161.4100773038259,159.9543410660699,161.33288822881877,0.9983363314516888,0.0003498134169469872,0.9979020503586199,0.9987706125447576,0.9978823219095159,0.9987038592711869,0.5584768141687759,0.038880463691213986,0.5102080816021157,0.6067455467354361,0.5171628540621701,0.6069584719032555,0.4398595172829126,0.03872953977332997,0.3917781514690801,0.4879408830967451,0.3917453873679314,0.4810397206909921,0.3143229099775556,0.0013517159233366934,0.3126448020483958,0.31600101790671536,0.31291283796140207,0.3157105321320665,1.2596428160709965,0.07923456502023475,1.161275881474442,1.358009750667551,1.128272043917017,1.3170989586021062,0.9453199060934411,0.07858174442166968,0.8477634253828382,1.042876386804044,0.815359205955615,1.0013884264700397
19,2,inceptiontime,inception_time,0,15,0,5.0,2.5,50.0,0.9,stage1,s1_157,main_effect_weight_decay-0p01_lr0.001_wd0.01_do0.2_ls0.1_mw90_ep15,main_effect,weight_decay,0.01,0.001,0.01,0.2,0.1,static_only,0,5,0.5962962962962963,0.06970629644487188,0.5097583730855149,0.6828342195070778,0.47685185185185186,0.6574074074074074,0.5980172215479562,0.07553307881392891,0.5042455523065249,0.6917888907893875,0.4702380952380952,0.6651851851851852,0.5962962962962963,0.06970629644487188,0.5097583730855149,0.6828342195070778,0.47685185185185186,0.6574074074074074,0.5980172215479562,0.07553307881392891,0.5042455523065249,0.6917888907893875,0.4702380952380952,0.6651851851851852,0.4166666666666667,0.14433756729740646,0.23747663718213688,0.5958566961511965,0.2222222222222222,0.5555555555555556,0.4603174603174603,0.11167656571008168,0.3216749192450631,0.5989600013898575,0.2857142857142857,0.5555555555555556,15.0,0.0,15.0,15.0,15.0,15.0,212.03959073331208,1.2395289158358955,210.50075904081234,213.57842242581182,210.64790192991495,213.3756177611649,0.9987845706924364,0.00031821505685466697,0.9983895178556187,0.9991796235292542,0.9982636445252251,0.9991200720392797,0.5588828491364476,0.04282378524517266,0.5057186211090327,0.6120470771638625,0.5023227714532992,0.6219247937016457,0.4399017215559889,0.0428967217156441,0.3866469454575555,0.49315649765442227,0.37686101272926786,0.4967973005859805,0.3114787820344166,0.0006414948344666722,0.3106823886875244,0.3122751753813088,0.31092950189918983,0.3125862073779183,1.2561143939666368,0.0805345176090902,1.156133613805916,1.3560951741273577,1.16312152119326,1.3793800398519294,0.9446356119322203,0.08058907071062442,0.8445871060085159,1.0446841178559247,0.8517525396002243,1.0681773930736524
20,2,inceptiontime,inception_time,0,12,0,5.0,2.5,50.0,0.9,stage1,s1_119,main_effect_weight_decay-0p005_lr0.001_wd0.005_do0.2_ls0.1_mw90_ep12,main_effect,weight_decay,0.005,0.001,0.005,0.2,0.1,static_only,0,5,0.5962962962962963,0.09109906574999142,0.4832000000000001,0.7093925925925926,0.4953703703703704,0.7083333333333334,0.5968184677562342,0.08258482324235025,0.4942923050332648,0.6993446304792035,0.49183006535947715,0.6996305768684286,0.5962962962962963,0.09109906574999142,0.4832000000000001,0.7093925925925926,0.4953703703703704,0.7083333333333334,0.5968184677562342,0.08258482324235025,0.4942923050332648,0.6993446304792035,0.49183006535947715,0.6996305768684286,0.47777777777777786,0.06631853547951846,0.39544564103433644,0.5601099145212193,0.4166666666666667,0.5833333333333334,0.5023647140015427,0.08334377954733396,0.3988963336341034,0.605833094368982,0.4166666666666667,0.6086956521739131,12.0,0.0,12.0,12.0,12.0,12.0,166.70216856077315,0.7929332430559785,165.71776973888018,167.6865673826661,165.56764838378876,167.50406512618065,0.998067441312991,0.0004984570318157822,0.997448624383343,0.9986862582426389,0.9974293730330774,0.9986379330961977,0.54994172081686,0.05392223057764057,0.4829991620083838,0.6168842796253362,0.509751852510117,0.6233881775065215,0.44812572049613103,0.053687254355610135,0.38147487642929956,0.5147765645629625,0.3752497555896762,0.48811751767653977,0.31490656387632066,0.001706863510801291,0.3127875526684045,0.3170255750842368,0.3130469678762836,0.31697606469752515,1.251731915857624,0.09072172595120008,1.1391040736924118,1.364359758022836,1.1160901196448527,1.338842596956071,0.9368253519813032,0.08981556486888438,0.8253224770307824,1.0483282269318241,0.8030431517685691,1.0218665322585458
21,2,inceptiontime,inception_time,0,15,0,5.0,2.5,50.0,0.7,stage1,s1_182,strong_combo_combined_regularization-wd0p005_do0p5_ls0p2_mw0p7_lr0.001_wd0.005_do0.5_ls0.2_mw70_ep15,strong_combo,combined_regularization,wd0.005_do0.5_ls0.2_mw0.7,0.001,0.005,0.5,0.2,static_only,0,5,0.5953703703703703,0.049927073016825564,0.533387659607848,0.6573530811328927,0.5509259259259259,0.6805555555555555,0.5928745513322171,0.0542029602269112,0.5255834765062419,0.6601656261581923,0.5584541062801932,0.6886215538847118,0.5953703703703703,0.049927073016825564,0.533387659607848,0.6573530811328927,0.5509259259259259,0.6805555555555555,0.5928745513322171,0.0542029602269112,0.5255834765062419,0.6601656261581923,0.5584541062801932,0.6886215538847118,0.4638888888888889,0.10829771494232182,0.32944107258590105,0.5983367051918768,0.3333333333333333,0.625,0.4841495041952708,0.0970231087480812,0.36369871620723043,0.6046002921833111,0.4,0.631578947368421,15.0,0.0,15.0,15.0,15.0,15.0,172.34685002416373,1.1233730500412396,170.9522217667521,173.74147828157535,171.33110193070024,173.9730593683198,0.9976997650088562,0.00033330479764875985,0.9972859787878722,0.9981135512298401,0.9973269472759612,0.9982404046525719,0.5679166917071713,0.03376840297672423,0.5259944032943651,0.6098389801199775,0.5346790048424516,0.6182540073196614,0.42978307330168486,0.03374321198960059,0.38789205861622456,0.47167408798714516,0.37934430812843223,0.4629704070402828,0.5181805261459445,0.001061444731480051,0.5168627797248883,0.5194982725670007,0.516737150378224,0.5193949060406252,1.1396185249581108,0.019867227254477107,1.1149540588446545,1.164282991071567,1.114975219192507,1.1606785794971466,0.6214379988121663,0.01914308537793309,0.5976725294508275,0.6452034681735052,0.5971399897226022,0.6412836734565214
22,2,inceptiontime,inception_time,0,10,0,5.0,2.5,50.0,1.0,stage1,s1_098,main_effect_max_windows_fraction-1p0_lr0.001_wd0.0005_do0.2_ls0.1_mw100_ep10,main_effect,max_windows_fraction,1.0,0.001,0.0005,0.2,0.1,static_only,0,5,0.5944444444444443,0.07955692201737016,0.49567731493742545,0.6932115739514633,0.5092592592592592,0.6990740740740741,0.6009084620611969,0.07280763465814169,0.5105203361881228,0.691296587934271,0.5227450980392158,0.6990740740740741,0.5944444444444443,0.07955692201737016,0.49567731493742545,0.6932115739514633,0.5092592592592592,0.6990740740740741,0.6009084620611969,0.07280763465814169,0.5105203361881228,0.691296587934271,0.5227450980392158,0.6990740740740741,0.48888888888888893,0.04648111258522644,0.4311842171906419,0.5465935605871359,0.4444444444444444,0.5555555555555556,0.5180596053413391,0.06697003590931218,0.43491865365519206,0.6012005570274862,0.42105263157894735,0.5882352941176471,10.0,0.0,10.0,10.0,10.0,10.0,143.28115522004663,2.1936514423037226,140.5578138614158,146.00449657867745,141.70042338129133,147.10040123481303,0.9975659574658188,0.0003319812637645219,0.9971538143657505,0.9979781005658871,0.9972188801323705,0.9979208296157462,0.5449270140869317,0.052325712940090474,0.47996647595333425,0.609887552220529,0.4871893006646049,0.6065122547556895,0.45263894337888716,0.052309190572577074,0.3876989171853017,0.5175789695724726,0.390706625376681,0.5104329488791672,0.31662357772876837,0.0013458420214507642,0.3149527620428675,0.31829439341466925,0.3151938345213866,0.31816777162974974,1.2308585533892895,0.08965471497945772,1.119555367937273,1.342161738841306,1.0898822696657606,1.3103673172643928,0.9142349756605211,0.09020235747742693,0.8022519112470151,1.0262180400740273,0.7717144980360109,0.9949167398505008
23,2,inceptiontime,inception_time,0,15,0,5.0,2.5,50.0,0.9,stage1,s1_177,strong_combo_combined_regularization-wd0p002_do0p4_ls0p15_mw0p9_lr0.001_wd0.002_do0.4_ls0.15_mw90_ep15,strong_combo,combined_regularization,wd0.002_do0.4_ls0.15_mw0.9,0.001,0.002,0.4,0.15,static_only,0,5,0.5944444444444443,0.07618519418786743,0.49986319682871083,0.6890256920601778,0.4953703703703704,0.6990740740740741,0.5997671010433159,0.07304686931009648,0.5090819737371417,0.69045222834949,0.5014619883040936,0.6989893211289092,0.5944444444444443,0.07618519418786743,0.49986319682871083,0.6890256920601778,0.4953703703703704,0.6990740740740741,0.5997671010433159,0.07304686931009648,0.5090819737371417,0.69045222834949,0.5014619883040936,0.6989893211289092,0.5166666666666666,0.06085806194501846,0.4411135163781544,0.5922198169551789,0.4166666666666667,0.5555555555555556,0.501859649122807,0.05548016429633027,0.43298297022200766,0.5707363280236063,0.4166666666666667,0.56,15.0,0.0,15.0,15.0,15.0,15.0,216.83236586060374,0.7795559081233301,215.86457453103512,217.80015719017237,215.8671490009874,218.04447972774506,0.9982855054579522,0.0002826882389044326,0.9979345579200889,0.9986364529958156,0.9979127805059683,0.9985543565590443,0.5700785149011234,0.038726319070416716,0.5220011474770434,0.6181558823252034,0.535656744978257,0.6294710481691814,0.42820699055682887,0.03858112787750714,0.38030987290850377,0.476104108205154,0.3690156003755205,0.46225603552771133,0.4213221870640349,0.0007807536860521533,0.4203529087351604,0.4222914653929094,0.42040328034959806,0.4222769256677349,1.1599726951734868,0.05269118122959124,1.0945584409713875,1.225386949375586,1.0983160283503794,1.2179283780302188,0.7386505081094518,0.0522193170636991,0.6738220567262727,0.8034789594926308,0.6774647868217668,0.7956514523624839
24,2,inceptiontime,inception_time,0,15,0,5.0,2.5,50.0,0.9,stage1,s1_161,main_effect_dropout-0p3_lr0.001_wd0.0005_do0.3_ls0.1_mw90_ep15,main_effect,dropout,0.3,0.001,0.0005,0.3,0.1,static_only,0,5,0.5944444444444443,0.03595049751540216,0.5498131621636865,0.6390757267252022,0.5509259259259259,0.6388888888888888,0.5965286301586387,0.03410242472877507,0.5541916654510939,0.6388655948661834,0.5570370370370371,0.638961038961039,0.5944444444444443,0.03595049751540216,0.5498131621636865,0.6390757267252022,0.5509259259259259,0.6388888888888888,0.5965286301586387,0.03410242472877507,0.5541916654510939,0.6388655948661834,0.5570370370370371,0.638961038961039,0.4611111111111111,0.037267799624996496,0.4148444444444444,0.5073777777777777,0.4166666666666667,0.5,0.5083129430955518,0.06369551591039717,0.4292371931870143,0.5873886930040892,0.43478260869565216,0.5714285714285714,15.0,0.0,15.0,15.0,15.0,15.0,218.08970671799034,0.5916223455361033,217.35522831763126,218.82418511834942,217.23749133665115,218.61755850631744,0.9982067644363573,0.00027112240451969037,0.9978701754763972,0.9985433533963173,0.99789705158537,0.9986088655653876,0.5556780894299115,0.04041604472861874,0.5055029868410832,0.6058531920187398,0.5063938770517176,0.6051727934092839,0.44252867500644577,0.04027166111689678,0.39253281960964087,0.49252453040325067,0.39309612769798497,0.4918371445672418,0.3147234821435413,0.0006203152121685313,0.31395338255519817,0.3154935817318844,0.31401666512834236,0.3154710345562314,1.2237644269530445,0.04625651699606195,1.1663385828046726,1.2811902711014165,1.1734723891395489,1.2698466208207062,0.9090409448095033,0.04580755195187402,0.8521724750232736,0.9659094145957329,0.8594557240112065,0.9546663519552313
25,2,inceptiontime,inception_time,0,5,0,5.0,2.5,50.0,0.7,stage1,s1_025,main_effect_max_windows_fraction-0p7_lr0.001_wd0.0005_do0.2_ls0.1_mw70_ep5,main_effect,max_windows_fraction,0.7,0.001,0.0005,0.2,0.1,static_only,0,5,0.5925925925925926,0.053089559912869046,0.5266837652219192,0.6585014199632659,0.5,0.6296296296296297,0.5955358744643979,0.048205018932790784,0.5356910334738965,0.6553807154548994,0.5162393162393163,0.6385185185185186,0.5925925925925926,0.053089559912869046,0.5266837652219192,0.6585014199632659,0.5,0.6296296296296297,0.5955358744643979,0.048205018932790784,0.5356910334738965,0.6553807154548994,0.5162393162393163,0.6385185185185186,0.4333333333333333,0.09938079899999067,0.3099555555555555,0.556711111111111,0.3333333333333333,0.5555555555555556,0.47378711057268064,0.06561472884998108,0.39232872508512917,0.5552454960602321,0.4,0.5555555555555556,5.0,0.0,5.0,5.0,5.0,5.0,53.22777673788369,4.3834803725549,47.78583953532225,58.66971394044512,50.8470952520147,61.04687351267785,0.9909068773631615,0.000559585771497435,0.9902121712463047,0.9916015834800184,0.9899571377675362,0.9914304174067616,0.5499791762825532,0.04157626328976242,0.4983637030260425,0.6015946495390639,0.5127377276675904,0.6021818989033596,0.44092770108060825,0.04150555685853629,0.3894000073795756,0.4924553947816409,0.38878396529245207,0.4783001089810903,0.3380965377958812,0.0013130682534538295,0.33646640959393653,0.3397266659978259,0.33703219847664145,0.34038974244147163,1.2583490795199737,0.09425868693058155,1.1413302243007928,1.3753679347391545,1.1123222103540105,1.333645575857948,0.9202525417240922,0.09413177263705248,0.8033912461508532,1.0371138372973312,0.7746622389330942,0.9962124309457733
26,2,inceptiontime,inception_time,0,15,0,5.0,2.5,50.0,0.9,stage1,s1_179,strong_combo_combined_regularization-wd0p005_do0p5_ls0p2_mw0p9_lr0.001_wd0.005_do0.5_ls0.2_mw90_ep15,strong_combo,combined_regularization,wd0.005_do0.5_ls0.2_mw0.9,0.001,0.005,0.5,0.2,static_only,0,5,0.5916666666666666,0.0362177911400147,0.5467035487219706,0.6366297846113625,0.5462962962962963,0.6296296296296297,0.5876939422881002,0.04209650967686525,0.5354326013812633,0.6399552831949372,0.5289449112978525,0.6365497076023392,0.5916666666666666,0.0362177911400147,0.5467035487219706,0.6366297846113625,0.5462962962962963,0.6296296296296297,0.5876939422881002,0.04209650967686525,0.5354326013812633,0.6399552831949372,0.5289449112978525,0.6365497076023392,0.4444444444444445,0.0856168611523469,0.3381541129561043,0.5507347759327846,0.3333333333333333,0.5555555555555556,0.46327181590339483,0.055345031950298794,0.3945628990726032,0.5319807327341864,0.38095238095238093,0.5263157894736842,15.0,0.0,15.0,15.0,15.0,15.0,217.41592032313346,2.926661948646736,213.78257211941406,221.04926852685287,214.8916651410982,221.27491122018546,0.9981395607486354,0.0005207546032405396,0.9974930621657917,0.9987860593314791,0.9973653106422621,0.9986401853757311,0.5629760526593718,0.02705134969254841,0.5293927504064234,0.5965593549123201,0.5232719925161637,0.5995558173143527,0.43516350808926346,0.0268538680145346,0.4018253724160804,0.4685016437624465,0.398999970340318,0.4746362038412224,0.5157326125819461,0.0008458989839694847,0.5146824586496292,0.516782766514263,0.5148269483127668,0.5169914306044593,1.1547563920122244,0.033174128007736364,1.1135718751387946,1.195940908885654,1.1174540898361485,1.199802841733851,0.6390237794302781,0.03267118689380789,0.5984636463172323,0.679583912543324,0.6018569969141963,0.6837233698306814
27,2,inceptiontime,inception_time,0,15,0,5.0,2.5,50.0,0.9,stage1,s1_149,main_effect_baseline-base_lr0.001_wd0.0005_do0.2_ls0.1_mw90_ep15,main_effect,baseline,base,0.001,0.0005,0.2,0.1,static_only,0,5,0.5907407407407408,0.0649469552472229,0.5101113727696109,0.6713701087118706,0.5046296296296297,0.6620370370370371,0.5943210959101837,0.06281336373399017,0.5163405070013776,0.6723016848189898,0.5048309178743962,0.6587301587301587,0.5907407407407408,0.0649469552472229,0.5101113727696109,0.6713701087118706,0.5046296296296297,0.6620370370370371,0.5943210959101837,0.06281336373399017,0.5163405070013776,0.6723016848189898,0.5048309178743962,0.6587301587301587,0.4333333333333333,0.06085806194501846,0.35778018304482107,0.5088864836218455,0.3333333333333333,0.5,0.46634953111679456,0.07048278609861328,0.3788476232237601,0.553851439009829,0.34782608695652173,0.5333333333333333,15.0,0.0,15.0,15.0,15.0,15.0,207.7876605534926,2.015342083541453,205.28568401243658,210.28963709454862,206.14729570690542,211.02499381359667,0.9988995136824851,0.0002863324059814484,0.9985440420389561,0.9992549853260141,0.9986427949638987,0.9993391521454715,0.558396472959183,0.034359848490752534,0.5157399256761351,0.601053020242231,0.534458100099515,0.6178104361369655,0.44050304072330215,0.03432258043494267,0.39789276042496546,0.48311332102163884,0.38109261296586217,0.4641879311335523,0.31139535391739787,0.0006451637529119508,0.31059440573688407,0.31219630209791166,0.31045971040102016,0.31196455686320146,1.23261877515898,0.06776654174174024,1.1484889894064856,1.3167485609114746,1.1206604154643192,1.305289332090442,0.9212234212415822,0.06746990491454473,0.8374618997102925,1.0049849427728719,0.809671177838261,0.9934747467870008
28,2,inceptiontime,inception_time,0,12,0,5.0,2.5,50.0,0.9,stage1,s1_123,main_effect_dropout-0p1_lr0.001_wd0.0005_do0.1_ls0.1_mw90_ep12,main_effect,dropout,0.1,0.001,0.0005,0.1,0.1,static_only,0,5,0.5907407407407408,0.04043975518874532,0.5405362024469279,0.6409452790345537,0.5648148148148148,0.6620370370370371,0.5885575648184346,0.03859867118916837,0.5406386677637312,0.636476461873138,0.5642135642135643,0.6545098039215687,0.5907407407407408,0.04043975518874532,0.5405362024469279,0.6409452790345537,0.5648148148148148,0.6620370370370371,0.5885575648184346,0.03859867118916837,0.5406386677637312,0.636476461873138,0.5642135642135643,0.6545098039215687,0.4444444444444445,0.03402069087198858,0.40220894945460167,0.4866799394342873,0.4166666666666667,0.5,0.4839832597070449,0.04873857785696588,0.4234760240181648,0.5444904953959251,0.43478260869565216,0.56,12.0,0.0,12.0,12.0,12.0,12.0,165.97666136585175,0.5114856887508787,165.3416698153891,166.6116529163144,165.5065944083035,166.83101045433432,0.9985773857850958,0.000401996645527326,0.9980783210432307,0.9990764505269609,0.998122064974809,0.9990338405035427,0.5503973229378082,0.03190221525191072,0.5107918411588839,0.5900028047167325,0.5068529640093452,0.5927404606629472,0.44818006284728773,0.03166922286477387,0.4088638329485388,0.4874962927460367,0.40629337984059555,0.4913403600420775,0.3115653179447494,0.0011289662468215644,0.31016374592962626,0.31296688995987254,0.31047680030524083,0.3128977615372031,1.2632023689568137,0.07307552276488197,1.1724816693910818,1.3539230685225456,1.1384493683267827,1.3226135814654634,0.951637051012064,0.07229972379850026,0.8618794786644426,1.0413946233596854,0.8279725680215418,1.0097158199282603
29,2,inceptiontime,inception_time,0,10,0,5.0,2.5,50.0,0.9,stage1,s1_096,main_effect_label_smoothing-0p2_lr0.001_wd0.0005_do0.2_ls0.2_mw90_ep10,main_effect,label_smoothing,0.2,0.001,0.0005,0.2,0.2,static_only,0,5,0.5907407407407408,0.04739438478544341,0.5319022736242359,0.6495792078572457,0.5370370370370371,0.6342592592592592,0.5876223283890626,0.05104400495718692,0.524252985780978,0.6509916709971472,0.5198879551820729,0.6413308913308913,0.5907407407407408,0.04739438478544341,0.5319022736242359,0.6495792078572457,0.5370370370370371,0.6342592592592592,0.5876223283890626,0.05104400495718692,0.524252985780978,0.6509916709971472,0.5198879551820729,0.6413308913308913,0.4277777777777777,0.10318986456114841,0.2996711786474412,0.5558843769081142,0.3333333333333333,0.5833333333333334,0.47140989729225025,0.06291183217695005,0.3933070632637039,0.5495127313207966,0.4,0.5714285714285714,10.0,0.0,10.0,10.0,10.0,10.0,133.4049752490595,0.3919310374965314,132.91840660667552,133.8915438914435,132.92731676343828,133.96382329054177,0.9975580326908211,0.0001498317437543476,0.9973720218338851,0.9977440435477571,0.9974198647060482,0.9977897849435996,0.5548323510867654,0.030773272133545675,0.5166284126097963,0.5930362895637346,0.5219280450143653,0.5953398229826551,0.4427256816040558,0.030724316035843427,0.4045825204060374,0.48086884280207415,0.4024499619609445,0.4756889294073988,0.5117772468289329,0.0006745193053754652,0.5109398547592088,0.512614638898657,0.5110158231001477,0.5123758328821009,1.167437832437885,0.03657252148413239,1.1220343292074197,1.21284133566835,1.1233638125329006,1.2103290581135389,0.6556605856089519,0.03669171275283571,0.6101091105971054,0.7012120606207984,0.6112314768777711,0.6980407855243321
30,2,inceptiontime,inception_time,0,8,0,5.0,2.5,50.0,0.9,stage1,s1_068,strong_combo_combined_regularization-wd0p005_do0p5_ls0p2_mw0p9_lr0.001_wd0.005_do0.5_ls0.2_mw90_ep8,strong_combo,combined_regularization,wd0.005_do0.5_ls0.2_mw0.9,0.001,0.005,0.5,0.2,static_only,0,5,0.587962962962963,0.02679591875645886,0.5546967692620443,0.6212291566638818,0.5509259259259259,0.6157407407407408,0.5888402617907261,0.031368968221374804,0.549896787505162,0.6277837360762902,0.556390977443609,0.6369770580296895,0.587962962962963,0.02679591875645886,0.5546967692620443,0.6212291566638818,0.5509259259259259,0.6157407407407408,0.5888402617907261,0.031368968221374804,0.549896787505162,0.6277837360762902,0.556390977443609,0.6369770580296895,0.47777777777777786,0.07190099503080437,0.38851521321626215,0.5670403423392936,0.4166666666666667,0.5555555555555556,0.4966282372598162,0.0459779388862251,0.4395482380681669,0.5537082364514655,0.4444444444444444,0.56,8.0,0.0,8.0,8.0,8.0,8.0,113.9547349177301,0.4816339952209844,113.35680319821752,114.55266663724267,113.34185331035405,114.45142921153456,0.9940348796517317,0.00027392768620044855,0.993694808032915,0.9943749512705483,0.9937395535618189,0.9943244365356435,0.5406442897128944,0.026248606851472796,0.5080575645538667,0.573231014871922,0.5025898928598458,0.5703143334712021,0.4533905899388372,0.026062580517290997,0.4210348099518191,0.4857463699258553,0.423780167948021,0.491168982193822,0.5271162927686494,0.0006962905541857543,0.5262518724568032,0.5279807130804955,0.5260143775974535,0.5276456860121541,1.1863795537833597,0.04892418803212691,1.1256418895693043,1.247117217997415,1.1171894719571889,1.2411697125739392,0.6592632610147103,0.04857851289821042,0.598954740360425,0.7195717816689957,0.5911750943597354,0.7143255444973584
31,2,inceptiontime,inception_time,0,12,0,5.0,2.5,50.0,0.3,stage1,s1_138,main_effect_max_windows_fraction-0p3_lr0.001_wd0.0005_do0.2_ls0.1_mw30_ep12,main_effect,max_windows_fraction,0.3,0.001,0.0005,0.2,0.1,static_only,0,5,0.587962962962963,0.053691729188625935,0.5213065635478251,0.6546193623781009,0.5138888888888888,0.6435185185185185,0.5881439252182286,0.06604917315911042,0.5061461923520292,0.6701416580844279,0.49015151515151517,0.6667744020685197,0.587962962962963,0.053691729188625935,0.5213065635478251,0.6546193623781009,0.5138888888888888,0.6435185185185185,0.5881439252182286,0.06604917315911042,0.5061461923520292,0.6701416580844279,0.49015151515151517,0.6667744020685197,0.4222222222222222,0.11006451531199417,0.28558098520234965,0.5588634592420948,0.25,0.5555555555555556,0.4559752321981424,0.10629240931472238,0.32401693252802555,0.5879335318682593,0.3,0.5882352941176471,12.0,0.0,12.0,12.0,12.0,12.0,56.32899678107351,0.1857179128488448,56.098434503335945,56.55955905881108,56.09845437295735,56.586862991563976,0.99474084385313,0.0011288413178793398,0.9933394269329088,0.9961422607733512,0.9929468241157527,0.9960511772273213,0.5559540367558399,0.02079527023668133,0.5301374378161358,0.581770635695544,0.5244774579926733,0.5823410727427409,0.43878680709729007,0.021093667782529,0.41259975806590343,0.4649738561286767,0.41241849313695766,0.47065896935117846,0.3317414367424515,0.003592891226107939,0.3272809882480244,0.3362018852368786,0.3280270004832846,0.33745212988357287,1.2468789744129365,0.08696798322858318,1.1389112722357921,1.3548466765900808,1.1297501330228166,1.3379518453717774,0.9151375376704852,0.08417910674960433,0.8106321278670735,1.019642947473897,0.801723132539532,1.0052645516073544
32,2,inceptiontime,inception_time,0,15,0,5.0,2.5,50.0,0.9,stage1,s1_171,main_effect_label_smoothing-0p3_lr0.001_wd0.0005_do0.2_ls0.3_mw90_ep15,main_effect,label_smoothing,0.3,0.001,0.0005,0.2,0.3,static_only,0,5,0.587962962962963,0.06322453835068359,0.5094719151828585,0.6664540107430675,0.5324074074074074,0.6666666666666666,0.5866980402775261,0.06277856284139788,0.5087606554567926,0.6646354250982597,0.5324675324675324,0.6716374269005847,0.587962962962963,0.06322453835068359,0.5094719151828585,0.6664540107430675,0.5324074074074074,0.6666666666666666,0.5866980402775261,0.06277856284139788,0.5087606554567926,0.6646354250982597,0.5324675324675324,0.6716374269005847,0.4722222222222222,0.07081971546656647,0.3843020283312442,0.5601424161132001,0.4166666666666667,0.5833333333333334,0.4948801054018445,0.059172188281420686,0.421419908161826,0.568340302641863,0.43478260869565216,0.5833333333333334,15.0,0.0,15.0,15.0,15.0,15.0,218.58799138944596,2.8894721938999766,215.00081296241305,222.17516981647887,216.44713338837028,223.643720430322,0.9990047780181174,0.00028175815923262276,0.998654985141559,0.9993545708946757,0.9986395513052952,0.9993323437439103,0.5553251172247032,0.040699818090711055,0.5047977199556171,0.6058525144937894,0.5109191395893709,0.6033347948796345,0.44367966079341414,0.040745054357434835,0.3930961042851238,0.49426321730170447,0.3958326225131217,0.4884132041545395,0.661205047103761,0.00025310800847621614,0.6608908223849241,0.661519271822598,0.6609400642753946,0.6616262631007609,1.1452391089773344,0.04381446396144912,1.0908449880557605,1.1996332298989083,1.0962251577132238,1.1975293127432818,0.4840340618735734,0.04386162194687305,0.42958139596640244,0.5384867277807444,0.43505445880127924,0.5365892484678871
33,2,inceptiontime,inception_time,0,15,0,5.0,2.5,50.0,0.9,stage1,s1_170,main_effect_label_smoothing-0p2_lr0.001_wd0.0005_do0.2_ls0.2_mw90_ep15,main_effect,label_smoothing,0.2,0.001,0.0005,0.2,0.2,static_only,0,5,0.587962962962963,0.052887313235166,0.5223052177521135,0.6536207081738126,0.5462962962962963,0.6805555555555555,0.5798496319430588,0.04506617965877109,0.5239015498670253,0.6357977140190924,0.536472148541114,0.6561403508771929,0.587962962962963,0.052887313235166,0.5223052177521135,0.6536207081738126,0.5462962962962963,0.6805555555555555,0.5798496319430588,0.04506617965877109,0.5239015498670253,0.6357977140190924,0.536472148541114,0.6561403508771929,0.3944444444444445,0.1028153084628986,0.2668028435785632,0.5220860453103258,0.2222222222222222,0.5,0.45068960025481763,0.10475946327979967,0.32063439934366766,0.5807448011659676,0.3076923076923077,0.6,15.0,0.0,15.0,15.0,15.0,15.0,222.04774870090188,0.4975810232765703,221.43001930514342,222.66547809666034,221.473921591416,222.8451369823888,0.9990797028666967,0.00023246333907253527,0.9987911077811452,0.9993682979522481,0.9986863333381033,0.9993049855876777,0.5523678581091147,0.03010498888505188,0.5149935698558803,0.5897421463623491,0.5261070625517241,0.596469908309494,0.4467118447575821,0.0300520493857891,0.4094032790366822,0.48402041047848193,0.4026844538911013,0.4730002941057099,0.5067751578974233,0.0003694289684169084,0.5063165247849041,0.5072337910099426,0.5063003104394094,0.5072398327247802,1.169940214255225,0.042101345885599925,1.1176728693647962,1.222207559145654,1.107808530500586,1.2005863985973693,0.6631650563578019,0.041849117355564666,0.6112108443445589,0.7151192683710449,0.6015082200611767,0.6935764548522714
34,2,inceptiontime,inception_time,0,15,0,5.0,2.5,50.0,0.9,stage1,s1_159,main_effect_dropout-0p0_lr0.001_wd0.0005_do0_ls0.1_mw90_ep15,main_effect,dropout,0.0,0.001,0.0005,0.0,0.1,static_only,0,5,0.5870370370370371,0.025230419617479117,0.5557143556324963,0.618359718441578,0.5509259259259259,0.6157407407407408,0.5806980022465283,0.01648773588326311,0.5602290561892108,0.6011669483038459,0.5570370370370371,0.5961538461538461,0.5870370370370371,0.025230419617479117,0.5557143556324963,0.618359718441578,0.5509259259259259,0.6157407407407408,0.5806980022465283,0.01648773588326311,0.5602290561892108,0.6011669483038459,0.5570370370370371,0.5961538461538461,0.4444444444444445,0.03402069087198858,0.40220894945460167,0.4866799394342873,0.4166666666666667,0.5,0.4801932367149758,0.0382451902680142,0.4327131738312358,0.5276732995987159,0.43478260869565216,0.5217391304347826,15.0,0.0,15.0,15.0,15.0,15.0,211.7940384555608,1.0313444321678502,210.5136605008176,213.07441641030402,210.42626416217536,212.7879056017846,0.9989423871811711,0.00025973580665451687,0.9986199342832591,0.9992648400790831,0.9985599862256557,0.9992466887650938,0.5661149233402666,0.02154850743435041,0.539363206827318,0.5928666398532152,0.5418740819632186,0.5878192751297282,0.43282746384090454,0.021426301968455724,0.40622746112947594,0.45942746655233313,0.41127913123724924,0.45707202479780173,0.3068603646941129,0.0009675040921987673,0.3056592422832697,0.30806148710495607,0.3057343681931549,0.30824823052751954,1.2229510748479444,0.04414836784312824,1.168142423963566,1.2777597257323228,1.1910040297057602,1.300553122291434,0.9160907101538317,0.043789156407624465,0.8617280076730763,0.9704534126345871,0.8847116712749741,0.9932390847768103
35,2,inceptiontime,inception_time,0,5,0,5.0,2.5,50.0,0.9,stage1,s1_006,main_effect_weight_decay-0p001_lr0.001_wd0.001_do0.2_ls0.1_mw90_ep5,main_effect,weight_decay,0.001,0.001,0.001,0.2,0.1,static_only,0,5,0.587037037037037,0.06426686367642225,0.5072519789077992,0.6668220951662749,0.5,0.6574074074074074,0.5940996307974237,0.07053185143938441,0.5065368100039983,0.681662451590849,0.5222222222222223,0.6810035842293907,0.587037037037037,0.06426686367642225,0.5072519789077992,0.6668220951662749,0.5,0.6574074074074074,0.5940996307974237,0.07053185143938441,0.5065368100039983,0.681662451590849,0.5222222222222223,0.6810035842293907,0.4222222222222222,0.08425417160057279,0.31762362203802363,0.5268208224064208,0.3333333333333333,0.5,0.4883333333333333,0.11480660066196346,0.3458049636037326,0.630861703062934,0.375,0.6666666666666666,5.0,0.0,5.0,5.0,5.0,5.0,65.49703455585987,0.40722934302737207,64.99147360350099,66.00259550821875,64.98048173915595,65.9951217006892,0.9918549903578266,0.0004728055520292844,0.9912680188410211,0.9924419618746322,0.9911331804133263,0.9922904477079486,0.5449847694351011,0.039641724060091775,0.4957709588094243,0.5941985800607779,0.48539963356664567,0.5927144034699073,0.44687022092272555,0.03926512139214527,0.39812394930603207,0.49561649253941903,0.39927488657054744,0.5057335468466806,0.33446379520602465,0.001340110107501454,0.3328000954903373,0.336127494921712,0.332777368029939,0.3356708437907046,1.2780979334706875,0.12989111406441378,1.1168426691982727,1.4393531977431022,1.141379836007488,1.4657156297630127,0.9436341382646628,0.12929236864622104,0.7831221954375833,1.1041460810917423,0.8059090253384515,1.1300447859723082
36,2,inceptiontime,inception_time,0,15,0,5.0,2.5,50.0,0.7,stage1,s1_173,main_effect_max_windows_fraction-0p7_lr0.001_wd0.0005_do0.2_ls0.1_mw70_ep15,main_effect,max_windows_fraction,0.7,0.001,0.0005,0.2,0.1,static_only,0,5,0.5861111111111111,0.06535817219104001,0.5049712317210427,0.6672509905011795,0.5138888888888888,0.6574074074074074,0.5894603729030974,0.08005895685043195,0.49006998475161734,0.6888507610545774,0.48092453355611253,0.6666666666666666,0.5861111111111111,0.06535817219104001,0.5049712317210427,0.6672509905011795,0.5138888888888888,0.6574074074074074,0.5894603729030974,0.08005895685043195,0.49006998475161734,0.6888507610545774,0.48092453355611253,0.6666666666666666,0.4222222222222222,0.11006451531199417,0.28558098520234965,0.5588634592420948,0.25,0.5555555555555556,0.4582559339525284,0.10101441262296203,0.33285008213451545,0.5836617857705413,0.3157894736842105,0.5882352941176471,15.0,0.0,15.0,15.0,15.0,15.0,168.89440011382104,0.520770931035586,168.24788126059224,169.54091896704983,168.381706783548,169.7190739447251,0.9982058660573209,0.0003193424914441251,0.997809413549987,0.9986023185646548,0.9977239616857723,0.9985224554730738,0.570941812747513,0.033252200131561736,0.5296603720694761,0.6122232534255498,0.5359603990751408,0.6072266305617676,0.42726405330980777,0.033080252567668084,0.3861960795040538,0.4683320271155617,0.39089887699251336,0.46176356261063145,0.3146448154548073,0.0013823895472445758,0.3129286272969492,0.31636100361266545,0.31351875009531505,0.3170314459403386,1.2283554110252897,0.043218276434981114,1.1747014360161516,1.2820093860344277,1.1655190359685528,1.2706355529115605,0.9137105955704822,0.04235792988866168,0.861124710635803,0.9662964805051614,0.8520002858732377,0.9536041069712219
37,2,inceptiontime,inception_time,0,15,0,5.0,2.5,50.0,0.9,stage1,s1_166,main_effect_label_smoothing-0p0_lr0.001_wd0.0005_do0.2_ls0_mw90_ep15,main_effect,label_smoothing,0.0,0.001,0.0005,0.2,0.0,static_only,0,5,0.586111111111111,0.034115061901741725,0.5437584577963734,0.6284637644258486,0.5462962962962963,0.6388888888888888,0.5873396032167962,0.026081969279594216,0.5549597527611272,0.6197194536724653,0.5589506172839506,0.6222222222222222,0.586111111111111,0.034115061901741725,0.5437584577963734,0.6284637644258486,0.5462962962962963,0.6388888888888888,0.5873396032167962,0.026081969279594216,0.5549597527611272,0.6197194536724653,0.5589506172839506,0.6222222222222222,0.5055555555555555,0.0569275042553311,0.43488205483779213,0.5762290562733189,0.4166666666666667,0.5555555555555556,0.5198759525075314,0.05274064980120905,0.4544002848080819,0.5853516202069808,0.45454545454545453,0.6,15.0,0.0,15.0,15.0,15.0,15.0,205.5891228804365,1.5355477407110611,203.6827941949463,207.4954515659267,203.6015270166099,207.56759659014642,0.9954823379665643,0.0003187640954650354,0.9950866035175605,0.995878072415568,0.9952258662897174,0.9959626424611583,0.5409298890668914,0.015504836848748439,0.5216811777015726,0.5601786004322102,0.5292577069673501,0.5674723430255697,0.4545524488996728,0.015594991184969615,0.43519181408664653,0.473913083712699,0.42775352326414773,0.4663949226190107,0.013369691824331347,0.000768066943585856,0.012416163641445621,0.014323220007217074,0.012055814029489378,0.014056413357715411,3.188767492369294,0.2513960381926124,2.8766681246197474,3.500866860118841,2.926445923498418,3.5081712203268176,3.175397800544963,0.251281163789204,2.8634410453398784,3.4873545557500476,2.9123895101407027,3.4944522667359386
38,2,inceptiontime,inception_time,0,12,0,5.0,2.5,50.0,0.9,stage1,s1_122,main_effect_dropout-0p0_lr0.001_wd0.0005_do0_ls0.1_mw90_ep12,main_effect,dropout,0.0,0.001,0.0005,0.0,0.1,static_only,0,5,0.586111111111111,0.08272670145158079,0.4834088115654749,0.6888134106567472,0.5092592592592592,0.7268518518518517,0.5863823124821913,0.08229541013427544,0.484215445986394,0.6885491789779886,0.5125925925925926,0.7268518518518517,0.586111111111111,0.08272670145158079,0.4834088115654749,0.6888134106567472,0.5092592592592592,0.7268518518518517,0.5863823124821913,0.08229541013427544,0.484215445986394,0.6885491789779886,0.5125925925925926,0.7268518518518517,0.45,0.08425417160057279,0.3454013998158014,0.5545986001841986,0.3333333333333333,0.5555555555555556,0.46021052631578946,0.06101130101556976,0.3844671350935798,0.535953917537999,0.4,0.5555555555555556,12.0,0.0,12.0,12.0,12.0,12.0,165.74159972518683,1.3406573222647984,164.07722066155551,167.40597878881815,164.73921429365873,167.95769976638258,0.9990450918310563,0.0005297037298418436,0.9983874832212836,0.999702700440829,0.9982202215957698,0.999625433533925,0.5379480683407805,0.043782140743877075,0.4835940755606061,0.5923020611209548,0.4938812691369412,0.6035639844288652,0.46109702349027576,0.04358718407304493,0.4069850625819746,0.515208984398577,0.3960614491050598,0.5051190151007775,0.30756809687513875,0.0019839972537697608,0.30510503384132925,0.31003115990894825,0.30534316613081075,0.31072639389729,1.2986219689646483,0.11907176072967599,1.1507985525427693,1.4464453853865273,1.0970739100097746,1.414882396569334,0.9910538720895096,0.11811493283408282,0.8444183239546834,1.1376894202243357,0.7917307438789638,1.108175924466653
39,2,inceptiontime,inception_time,0,10,0,5.0,2.5,50.0,0.9,stage1,s1_078,main_effect_weight_decay-5em05_lr0.001_wd5e-05_do0.2_ls0.1_mw90_ep10,main_effect,weight_decay,5e-05,0.001,5e-05,0.2,0.1,static_only,0,5,0.586111111111111,0.032506462373225825,0.5457554777153086,0.6264667445069134,0.5462962962962963,0.6342592592592592,0.585905873390057,0.04497500235464979,0.5300709847405147,0.6417407620395992,0.5429951690821255,0.6564102564102564,0.586111111111111,0.032506462373225825,0.5457554777153086,0.6264667445069134,0.5462962962962963,0.6342592592592592,0.585905873390057,0.04497500235464979,0.5300709847405147,0.6417407620395992,0.5429951690821255,0.6564102564102564,0.43888888888888894,0.06916610887771518,0.3530215896043548,0.5247561881734231,0.3333333333333333,0.5,0.48323417238749045,0.0614899685511331,0.4068965322014324,0.5595718125735485,0.4,0.5333333333333333,10.0,0.0,10.0,10.0,10.0,10.0,140.87444992847742,2.5319481102140577,137.7311251169423,144.01777474001253,138.27984248287976,144.41625152528286,0.9971992320133767,0.000269755135675357,0.9968643404697519,0.9975341235570014,0.9967574641226055,0.9974236038724648,0.5417025434686547,0.021946159838235883,0.514457155437535,0.5689479314997743,0.5046860387566982,0.5604215675138015,0.45549668854472214,0.021874504181479324,0.42834025849929774,0.48265311859014653,0.43698997588720556,0.492500232670821,0.3181857438263944,0.0005986584093483234,0.31744253039948905,0.3189289572532998,0.3175982657149069,0.3188946852671017,1.2426673868191804,0.028232204658533842,1.207618094525428,1.2777166791129329,1.2139420247344501,1.2785917610775466,0.924481642992786,0.028743895137246865,0.8887971049090126,0.9601661810765594,0.8951748210307817,0.9609934953626397
40,2,inceptiontime,inception_time,0,8,0,5.0,2.5,50.0,0.3,stage1,s1_064,main_effect_max_windows_fraction-0p3_lr0.001_wd0.0005_do0.2_ls0.1_mw30_ep8,main_effect,max_windows_fraction,0.3,0.001,0.0005,0.2,0.1,static_only,0,5,0.586111111111111,0.013733700902029017,0.5690612029295803,0.6031610192926418,0.5648148148148148,0.6018518518518519,0.5801641156687596,0.042535898114946534,0.5273572894205165,0.6329709419170026,0.5081699346405228,0.6216931216931217,0.586111111111111,0.013733700902029017,0.5690612029295803,0.6031610192926418,0.5648148148148148,0.6018518518518519,0.5801641156687596,0.042535898114946534,0.5273572894205165,0.6329709419170026,0.5081699346405228,0.6216931216931217,0.4333333333333333,0.1541604102834623,0.24194858865960767,0.6247180780070589,0.16666666666666666,0.5555555555555556,0.47779206689423415,0.13598950719517616,0.30896586135288473,0.6466182724355836,0.23529411764705882,0.5555555555555556,8.0,0.0,8.0,8.0,8.0,8.0,37.535150359012185,0.20207158343644716,37.28428557258168,37.78601514544269,37.355268793180585,37.7994398297742,0.9917325404434688,0.0010745909916172578,0.9903984734013457,0.993066607485592,0.9904363871703359,0.9926113599365912,0.5440007583529252,0.018764149075419304,0.5207057251260702,0.5672957915797802,0.516271986691174,0.5685600463964972,0.44773178209054354,0.018837068955905596,0.42434622138855504,0.47111734279253203,0.4240422258271802,0.4760430205803714,0.3403277156014355,0.002198243251978283,0.33759867367207747,0.3430567575307935,0.337877159440949,0.34363797370601595,1.2774882381024857,0.07705473608604876,1.1818274847053356,1.3731489914996358,1.1778843796846319,1.370487405149486,0.9371605225010502,0.07840790453714419,0.839819857912452,1.0345011870896483,0.8342464059786159,1.030796099641045
41,2,inceptiontime,inception_time,0,15,0,5.0,2.5,50.0,0.9,stage1,s1_153,main_effect_weight_decay-0p0001_lr0.001_wd0.0001_do0.2_ls0.1_mw90_ep15,main_effect,weight_decay,0.0001,0.001,0.0001,0.2,0.1,static_only,0,5,0.5851851851851851,0.06259423622650209,0.5074766353945578,0.6628937349758125,0.4953703703703704,0.6527777777777778,0.5902693602693603,0.058468899917025634,0.5176822708772273,0.6628564496614933,0.5103174603174603,0.6583333333333333,0.5851851851851851,0.06259423622650209,0.5074766353945578,0.6628937349758125,0.4953703703703704,0.6527777777777778,0.5902693602693603,0.058468899917025634,0.5176822708772273,0.6628564496614933,0.5103174603174603,0.6583333333333333,0.41666666666666663,0.08333333333333334,0.3132112549076764,0.5201220784256569,0.3333333333333333,0.5,0.44409090909090904,0.07426638450718193,0.35189179642240503,0.5362900217594131,0.375,0.5454545454545454,15.0,0.0,15.0,15.0,15.0,15.0,212.92563009466977,1.45446003588595,211.11996895187485,214.7312912374647,211.27866220846772,214.46382843796164,0.9988715160132665,0.00027151387044365436,0.9985344410620862,0.9992085909644468,0.9984568957938886,0.999130774817915,0.5538389334632502,0.036573035822034,0.5084347917003122,0.5992430752261881,0.4934417101861981,0.5895944834119908,0.4450325825500164,0.03666224577686016,0.39951768975576396,0.4905474753442688,0.4092384172951484,0.5056890646317169,0.31116369273199795,0.0005892448568534889,0.3104321659004862,0.3118952195635097,0.31069119725741484,0.3121830475820129,1.2408069272864093,0.09416150245101766,1.1239087231914269,1.3577051313813917,1.125369208812865,1.3865956931338101,0.9296432345544116,0.09419542283766368,0.8127029194886193,1.0465835496202038,0.8142837414975634,1.075593606955155
42,2,inceptiontime,inception_time,0,50,0,5.0,2.5,50.0,0.9,reference,ref_rank2_fixed_epoch,original_rank_parameters_no_early_stopping_static_only,,,,0.001,0.0001,-1.0,0.0,static_only,0,5,0.5851851851851851,0.060769951196705224,0.5097414213016386,0.6606289490687317,0.5,0.6620370370370371,0.5890603310784799,0.06454918098535017,0.50892478590794,0.6691958762490198,0.48946608946608944,0.6503703703703704,0.5851851851851851,0.060769951196705224,0.5097414213016386,0.6606289490687317,0.5,0.6620370370370371,0.5890603310784799,0.06454918098535017,0.50892478590794,0.6691958762490198,0.48946608946608944,0.6503703703703704,0.4444444444444445,0.06804138174397718,0.3599734544647588,0.5289154344241301,0.3333333333333333,0.5,0.4931717171717171,0.07757344272640537,0.3968670076658445,0.5894764266775897,0.36363636363636365,0.5555555555555556,50.0,0.0,50.0,50.0,50.0,50.0,681.4714475130662,3.5853121486264246,677.0204081776184,685.922486848514,676.5132378395647,685.1033478779718,0.9989093425900016,0.0009186061893930705,0.9977689252111854,1.0000497599688178,0.9977559418908124,0.999799797882132,0.5358343581111896,0.045316253478004345,0.47957581815588907,0.5920928980664902,0.49172898763251194,0.6029864939612016,0.4630749844788121,0.044979514882033,0.40723449368472786,0.5189154752728964,0.3968133039209304,0.5076150107873032,0.003511780243323259,0.002797647820333358,3.8598556812509226e-05,0.006984961929834009,0.0008498849050799822,0.007146078733555818,4.225827819414257,0.4390180198365258,3.680802339272605,4.770853299555909,3.6860499871625088,4.881333385836963,4.2223160391709325,0.43907384327148485,3.6772212561918867,4.767410822149978,3.678903908428953,4.875549288327767
43,2,inceptiontime,inception_time,0,10,0,5.0,2.5,50.0,0.9,stage1,s1_103,strong_combo_combined_regularization-wd0p002_do0p4_ls0p15_mw0p9_lr0.001_wd0.002_do0.4_ls0.15_mw90_ep10,strong_combo,combined_regularization,wd0.002_do0.4_ls0.15_mw0.9,0.001,0.002,0.4,0.15,static_only,0,5,0.5851851851851851,0.06657658523054642,0.5025326887227809,0.6678376816475894,0.5231481481481481,0.6944444444444443,0.5890150111326583,0.07486309655763045,0.49607510137358585,0.6819549208917307,0.5198879551820729,0.7022222222222222,0.5851851851851851,0.06657658523054642,0.5025326887227809,0.6678376816475894,0.5231481481481481,0.6944444444444443,0.5890150111326583,0.07486309655763045,0.49607510137358585,0.6819549208917307,0.5198879551820729,0.7022222222222222,0.48888888888888893,0.12668615834434868,0.33161246478073814,0.6461653129970397,0.3333333333333333,0.6666666666666666,0.5106666666666666,0.0873816660149917,0.40218539181345625,0.619147941519877,0.4,0.64,10.0,0.0,10.0,10.0,10.0,10.0,132.27113265749068,0.5703723938852957,131.56303532710632,132.97922998787504,131.71221490111202,133.2135901125148,0.9966573395100481,0.0004920917216534477,0.9960464248898059,0.9972682541302903,0.9958577851566804,0.9971855914349188,0.5512474131086357,0.024640524012086988,0.5206570664171027,0.5818377598001686,0.5245504360253646,0.5763745697390988,0.4454099264014123,0.02476099207538345,0.41467002283277365,0.47614982997005095,0.4197431221260066,0.47230356027124365,0.42740561810005306,0.0010458479574444331,0.4261072345271565,0.42870400167294964,0.42614974084236207,0.42880245223096497,1.2045627171715396,0.035012938645733835,1.1610953813576996,1.2480300529853796,1.1639246685222986,1.2462106203201766,0.7771570990714863,0.03501820684924176,0.7336832229676887,0.8206309751752839,0.7377749276799366,0.8192916918236092
44,2,inceptiontime,inception_time,0,10,0,5.0,2.5,50.0,0.9,stage1,s1_084,main_effect_weight_decay-0p02_lr0.001_wd0.02_do0.2_ls0.1_mw90_ep10,main_effect,weight_decay,0.02,0.001,0.02,0.2,0.1,static_only,0,5,0.5824074074074075,0.031806600069106794,0.5429206285257718,0.6218941862890431,0.5509259259259259,0.625,0.5925704290762164,0.03291752497744806,0.5517044758686716,0.6334363822837612,0.5671497584541063,0.6299734748010609,0.5824074074074075,0.031806600069106794,0.5429206285257718,0.6218941862890431,0.5509259259259259,0.625,0.5925704290762164,0.03291752497744806,0.5517044758686716,0.6334363822837612,0.5671497584541063,0.6299734748010609,0.47777777777777775,0.06631853547951848,0.39544564103433627,0.5601099145212192,0.4166666666666667,0.5833333333333334,0.49297893070271587,0.05563996052692933,0.4239038703839066,0.5620539910215251,0.43478260869565216,0.5833333333333334,10.0,0.0,10.0,10.0,10.0,10.0,146.90549144428223,0.8247006657108157,145.88165448089393,147.92932840767054,145.48614491242915,147.4930160297081,0.9970935809641046,0.0003966546442075609,0.9966011481295933,0.9975860137986159,0.9966216711293485,0.9977172656089721,0.550133855353462,0.024420911953371458,0.519816149333469,0.5804515613734551,0.5172574874124509,0.5798731119609011,0.44695972561064246,0.024416004794978068,0.4166481116557552,0.4772713395655297,0.4170883384481232,0.479828110817921,0.31827125496130837,0.0009661200863180303,0.3170718507452444,0.31947065917737233,0.31692406230722947,0.31964597257748817,1.2128764646352292,0.025815815638662434,1.1808270345937253,1.2449258946767332,1.1921028699892589,1.242350992680419,0.8946052096739209,0.025908142976653534,0.8624411584791951,0.9267692608686466,0.8724568974117707,0.9239626284428177
45,2,inceptiontime,inception_time,0,10,0,5.0,2.5,50.0,0.9,stage1,s1_106,strong_combo_combined_regularization-wd0p01_do0p5_ls0p2_mw0p9_lr0.001_wd0.01_do0.5_ls0.2_mw90_ep10,strong_combo,combined_regularization,wd0.01_do0.5_ls0.2_mw0.9,0.001,0.01,0.5,0.2,static_only,0,5,0.5824074074074075,0.05402997948479689,0.515331082108254,0.649483732706561,0.5231481481481481,0.6574074074074074,0.5871884846917919,0.05705513679886761,0.5163565326458834,0.6580204367377003,0.5149572649572649,0.6678733031674208,0.5824074074074075,0.05402997948479689,0.515331082108254,0.649483732706561,0.5231481481481481,0.6574074074074074,0.5871884846917919,0.05705513679886761,0.5163565326458834,0.6580204367377003,0.5149572649572649,0.6678733031674208,0.4638888888888889,0.06775728287583595,0.37977059769380905,0.5480071800839688,0.375,0.5555555555555556,0.49944586530264284,0.06337589830000978,0.42076690945196205,0.5781248211533236,0.4166666666666667,0.5882352941176471,10.0,0.0,10.0,10.0,10.0,10.0,133.71403031721712,0.44810841310851846,133.15771943252741,134.27034120190683,133.27038594987243,134.25783203728497,0.9959985202358927,0.00037932367393288117,0.9955276031933729,0.9964694372784126,0.9955959932359496,0.9965535778878382,0.5514043418051214,0.02779778465992157,0.5168943667093623,0.5859143169008806,0.5088393189198555,0.5778028523380268,0.4445941784307714,0.027807959841561175,0.4100715712037373,0.4791167856578056,0.4187507255498114,0.48734889962030536,0.5221927939386394,0.0006321698033467618,0.5214079772909573,0.5229776105863214,0.5211269355716647,0.5226901089120713,1.1628909974823114,0.024266550900343565,1.1327649252979248,1.193017069666698,1.1464218560463162,1.2048890416164566,0.6406982035436719,0.024204313524097146,0.6106493968799219,0.6707470102074219,0.6242498917974096,0.6827566292267295
46,2,inceptiontime,inception_time,0,10,0,5.0,2.5,50.0,0.9,stage1,s1_111,strong_combo_combined_regularization-wd0p01_do0p6_ls0p3_mw0p9_lr0.0005_wd0.01_do0.6_ls0.3_mw90_ep10,strong_combo,combined_regularization,wd0.01_do0.6_ls0.3_mw0.9,0.0005,0.01,0.6,0.3,static_only,0,5,0.5824074074074075,0.05887097910745121,0.5093211507968122,0.6554936640180028,0.5231481481481481,0.6712962962962963,0.5838934769881061,0.05510273824377348,0.5154853592994167,0.6523015946767955,0.5238095238095238,0.6625935398313915,0.5824074074074075,0.05887097910745121,0.5093211507968122,0.6554936640180028,0.5231481481481481,0.6712962962962963,0.5838934769881061,0.05510273824377348,0.5154853592994167,0.6523015946767955,0.5238095238095238,0.6625935398313915,0.45555555555555555,0.08240220541217405,0.3532561064663712,0.5578550046447399,0.3333333333333333,0.5555555555555556,0.4759358288770053,0.07874583604054337,0.3781756341744411,0.5736960235795695,0.36363636363636365,0.5555555555555556,10.0,0.0,10.0,10.0,10.0,10.0,134.73817750979214,1.266528974814986,133.16582619066202,136.31052882892226,133.02129924762994,136.12147888168693,0.9954643811577256,0.0002587044466263142,0.9951432086571304,0.9957855536583209,0.9952076963522654,0.99582687701106,0.5473664054996311,0.032349283416373796,0.5072059042682404,0.5875269067310218,0.50225794388571,0.5836193837532114,0.4480979756580945,0.03227498727704052,0.4080297104789457,0.4881662408372433,0.41165228298226386,0.49294975246655537,0.6797599293624914,0.0003931258360475677,0.6792718774195946,0.6802479813053882,0.6792566549471095,0.6801031742175567,1.1420397265801507,0.03132884386959101,1.1031460652706109,1.1809333878896906,1.1121857770974684,1.1908477394323174,0.46227979721765927,0.0313781011422027,0.4233249847310774,0.5012346097042412,0.4320826028799116,0.5108273681339118
47,2,inceptiontime,inception_time,0,15,0,5.0,2.5,50.0,0.9,stage1,s1_156,main_effect_weight_decay-0p005_lr0.001_wd0.005_do0.2_ls0.1_mw90_ep15,main_effect,weight_decay,0.005,0.001,0.005,0.2,0.1,static_only,0,5,0.5824074074074075,0.07227265570524316,0.4926834391485875,0.6721313756662275,0.513888888888889,0.6898148148148149,0.5832537028189202,0.07008070963390307,0.4962509587604681,0.6702564468773723,0.5145061728395062,0.6916666666666668,0.5824074074074075,0.07227265570524316,0.4926834391485875,0.6721313756662275,0.513888888888889,0.6898148148148149,0.5832537028189202,0.07008070963390307,0.4962509587604681,0.6702564468773723,0.5145061728395062,0.6916666666666668,0.40555555555555556,0.07243558228002944,0.3156293196661636,0.49548179144494753,0.3333333333333333,0.5,0.4542124542124542,0.05629120208732173,0.3843289003282254,0.524096008096683,0.4,0.5333333333333333,15.0,0.0,15.0,15.0,15.0,15.0,212.0903864596039,0.6370383225359028,211.2995257160334,212.8812472031744,211.11625674832612,212.71762521471828,0.9986856703861606,0.0002241618948740851,0.9984073812525421,0.9989639595197791,0.9984015690681959,0.9988963019145803,0.548713324681195,0.041372054937438035,0.49735136893477644,0.6000752804276137,0.4835638360417461,0.5918636521375127,0.44997234570496564,0.04142039110091369,0.3985503823062043,0.501394309103727,0.40690971745019633,0.5153324658728342,0.3117395659755728,0.0005337692815609069,0.3110769101258746,0.312402221825271,0.31112651472147235,0.3125943270183128,1.2350523728571736,0.09395229986889131,1.1184138864334903,1.351690859280857,1.1399345292522731,1.3755138942049083,0.923312806881601,0.09404547794167108,0.8065586431472817,1.0400669706159205,0.8281923261236208,1.064387379483436
48,2,inceptiontime,inception_time,0,8,0,5.0,2.5,50.0,0.7,stage1,s1_062,main_effect_max_windows_fraction-0p7_lr0.001_wd0.0005_do0.2_ls0.1_mw70_ep8,main_effect,max_windows_fraction,0.7,0.001,0.0005,0.2,0.1,static_only,0,5,0.5824074074074075,0.04310779387772139,0.5288905926197114,0.6359242221951036,0.5324074074074074,0.6481481481481481,0.5822411145752555,0.038231128247108205,0.5347785091974714,0.6297037199530396,0.5261911527896183,0.622853926259499,0.5824074074074075,0.04310779387772139,0.5288905926197114,0.6359242221951036,0.5324074074074074,0.6481481481481481,0.5822411145752555,0.038231128247108205,0.5347785091974714,0.6297037199530396,0.5261911527896183,0.622853926259499,0.4444444444444445,0.03402069087198858,0.40220894945460167,0.4866799394342873,0.4166666666666667,0.5,0.4948863463005339,0.03976868348489955,0.445514920000015,0.5442577726010528,0.43478260869565216,0.5333333333333333,8.0,0.0,8.0,8.0,8.0,8.0,87.12569491397589,1.0159800039576377,85.86439135819583,88.38699846975595,86.26777352578938,88.83241652883589,0.9948523438054384,0.0007245020876336344,0.9939528998638818,0.995751787746995,0.9938262060878291,0.9958011392982534,0.5478719119800678,0.007063350095230601,0.5391030104700679,0.5566408134900677,0.5420648557912322,0.5565093982704596,0.4469804318253706,0.0067989949259193135,0.4385397179900714,0.4554211456606698,0.4392917410277938,0.4530290192441466,0.3265599670203022,0.001443916122300871,0.3247673957765652,0.3283525382640392,0.3243168089066752,0.3280356463041745,1.280021504089974,0.08843927214173368,1.1702272483089127,1.3898157598710354,1.1837863257899999,1.4188922610531969,0.9534615370696716,0.08803946249873514,0.8441636309435098,1.0627594431958336,0.857525470415022,1.0922847518212067
49,2,inceptiontime,inception_time,0,12,0,5.0,2.5,50.0,0.9,stage1,s1_117,main_effect_weight_decay-0p001_lr0.001_wd0.001_do0.2_ls0.1_mw90_ep12,main_effect,weight_decay,0.001,0.001,0.001,0.2,0.1,static_only,0,5,0.5824074074074075,0.07031857255441507,0.4951093648723502,0.6697054499424648,0.4953703703703704,0.6898148148148149,0.578940048011794,0.0710474891176885,0.4907370811184399,0.6671430149051482,0.4936117467581998,0.6891025641025642,0.5824074074074075,0.07031857255441507,0.4951093648723502,0.6697054499424648,0.4953703703703704,0.6898148148148149,0.578940048011794,0.0710474891176885,0.4907370811184399,0.6671430149051482,0.4936117467581998,0.6891025641025642,0.4444444444444445,0.03402069087198858,0.40220894945460167,0.4866799394342873,0.4166666666666667,0.5,0.47946744331183694,0.04081501884841564,0.42879702834087147,0.5301378582828024,0.42105263157894735,0.5217391304347826,12.0,0.0,12.0,12.0,12.0,12.0,165.90141186062246,0.5148085172344213,165.2622951350922,166.54052858615273,165.3364589754492,166.47095155529678,0.9981040419682513,0.0004443798632361631,0.9975523599475093,0.9986557239889933,0.9977011531741653,0.9987544723773396,0.5519070355259805,0.0440344288572543,0.49723983589799003,0.606574235153971,0.5061118607137309,0.617899004271878,0.4461970064422708,0.043931942109772075,0.39165704051820766,0.5007369723663339,0.3804455313159778,0.4918656123020734,0.31457064914707056,0.0016064991860789593,0.3125762367296352,0.3165650615645059,0.31226670894486863,0.31607891914699876,1.2538319178325872,0.08096171380916355,1.1533207885665007,1.3543430470986737,1.1185689663733083,1.3190042162595215,0.9392612686855166,0.0805615770238569,0.8392468952100359,1.0392756421609972,0.8049500205234236,1.0039522726742551
50,2,inceptiontime,inception_time,0,15,0,5.0,2.5,50.0,0.9,stage1,s1_151,main_effect_weight_decay-1em05_lr0.001_wd1e-05_do0.2_ls0.1_mw90_ep15,main_effect,weight_decay,1e-05,0.001,1e-05,0.2,0.1,static_only,0,5,0.5824074074074075,0.04260768653645754,0.529511458350681,0.6353033564641339,0.5231481481481481,0.6388888888888888,0.5775440412625767,0.04047890517300267,0.5272908996358634,0.6277971828892901,0.5292397660818713,0.6344393592677345,0.5824074074074075,0.04260768653645754,0.529511458350681,0.6353033564641339,0.5231481481481481,0.6388888888888888,0.5775440412625767,0.04047890517300267,0.5272908996358634,0.6277971828892901,0.5292397660818713,0.6344393592677345,0.43888888888888894,0.06916610887771518,0.3530215896043548,0.5247561881734231,0.3333333333333333,0.5,0.4560531764193091,0.06314050558084727,0.3776664523768606,0.5344399004617576,0.38095238095238093,0.5217391304347826,15.0,0.0,15.0,15.0,15.0,15.0,216.8655273757875,8.102460877011577,206.8066062602794,226.9244484912956,202.4594362685457,221.46351793874055,0.9988334095609697,0.0002565010374470243,0.9985149725156214,0.999151846606318,0.9985465836245766,0.9991010043204304,0.5675666646936259,0.025078691878590142,0.5364323479575093,0.5987009814297426,0.5297561398750026,0.5967552300964974,0.43126674486734357,0.025101337589130794,0.40010431427552423,0.4624291754591629,0.4022267451090885,0.4693448644454278,0.3114022988899884,0.000690486878182196,0.31054508363843014,0.3122595141415466,0.3105690924992646,0.3121315472646431,1.2224784441603984,0.06244706940282204,1.1449525968218641,1.3000042914989327,1.158684084511578,1.3033098925244018,0.9110761452704101,0.062369090324374085,0.8336471062239088,0.9885051843169115,0.8471097688325351,0.9925113363963332
51,2,inceptiontime,inception_time,0,5,0,5.0,2.5,50.0,0.9,stage1,s1_011,main_effect_dropout-0p0_lr0.001_wd0.0005_do0_ls0.1_mw90_ep5,main_effect,dropout,0.0,0.001,0.0005,0.0,0.1,static_only,0,5,0.5824074074074074,0.07107650102972331,0.4941684232423875,0.6706463915724272,0.4861111111111111,0.6712962962962963,0.5894298998959904,0.07418164569589154,0.4973359874908545,0.6815238123011262,0.48981481481481487,0.6902025177887247,0.5824074074074074,0.07107650102972331,0.4941684232423875,0.6706463915724272,0.4861111111111111,0.6712962962962963,0.5894298998959904,0.07418164569589154,0.4973359874908545,0.6815238123011262,0.48981481481481487,0.6902025177887247,0.47777777777777775,0.09296222517045286,0.36236843438128374,0.5931871211742717,0.3333333333333333,0.5555555555555556,0.5387301587301587,0.09806389800899495,0.41698726736361236,0.6604730500967051,0.4,0.6666666666666666,5.0,0.0,5.0,5.0,5.0,5.0,65.03246822282672,0.16899350633789792,64.82266870943333,65.24226773622011,64.89787931088358,65.3137820372358,0.9933234416531581,0.0005294540569290133,0.9926661430035534,0.9939807403027628,0.9925518228322308,0.9937543194933338,0.5475376540423411,0.035522730751029345,0.5034374292025233,0.5916378788821589,0.503758817690217,0.5851805471764303,0.44578578761081705,0.035425325730218414,0.4018064876894239,0.4897650875322102,0.40781153198131204,0.4898528613155113,0.3273722454422582,0.0013632733228810152,0.32567978940675374,0.3290647014777626,0.32572097579006176,0.32891345506996317,1.2726556040245438,0.11803784687876229,1.1261157554006997,1.4191954526483879,1.1366423975733144,1.3974520778532595,0.9452833585822855,0.11764592314519617,0.799230069533252,1.091336647631319,0.8082255754202095,1.0685386227832963
52,2,inceptiontime,inception_time,0,15,0,5.0,2.5,50.0,0.9,stage1,s1_180,strong_combo_combined_regularization-wd0p01_do0p5_ls0p2_mw0p9_lr0.001_wd0.01_do0.5_ls0.2_mw90_ep15,strong_combo,combined_regularization,wd0.01_do0.5_ls0.2_mw0.9,0.001,0.01,0.5,0.2,static_only,0,5,0.5824074074074074,0.04335568432756721,0.5285828453169922,0.6362319694978226,0.5277777777777778,0.6342592592592592,0.5830299944144338,0.03954571801793507,0.5339353719242291,0.6321246169046385,0.531873923178271,0.6294685990338164,0.5824074074074074,0.04335568432756721,0.5285828453169922,0.6362319694978226,0.5277777777777778,0.6342592592592592,0.5830299944144338,0.03954571801793507,0.5339353719242291,0.6321246169046385,0.531873923178271,0.6294685990338164,0.4666666666666667,0.06022078719077444,0.3919046706434015,0.5414286626899318,0.4166666666666667,0.5555555555555556,0.491805600958919,0.03758181489112161,0.44514909534838537,0.5384621065694527,0.43478260869565216,0.5263157894736842,15.0,0.0,15.0,15.0,15.0,15.0,222.45479876436292,0.6063557532720092,221.70202935483667,223.20756817388917,221.47562908008695,223.00277504697442,0.9979875603536558,0.00021040035807075248,0.9977263556855144,0.9982487650217972,0.9977524463584013,0.998243098137058,0.556244687279253,0.026224954494982022,0.5236873256915833,0.5888020488669228,0.5181355118245246,0.5828155046187813,0.44174287307440263,0.02628007293380246,0.4091170838773287,0.47436866227147656,0.4153539659680998,0.4801075863125335,0.5158827509365355,0.0003841741719721973,0.5154058121707529,0.516359689702318,0.5154073042079688,0.5162903898525393,1.1489360457655506,0.039966644229661036,1.0993188581406947,1.1985532333904065,1.0922081343921368,1.1999274987300659,0.6330532948290151,0.03985561107682443,0.5835739509707065,0.6825326386873236,0.5768008301841681,0.6843435728195668
53,2,inceptiontime,inception_time,0,12,0,5.0,2.5,50.0,0.2,stage1,s1_139,main_effect_max_windows_fraction-0p2_lr0.001_wd0.0005_do0.2_ls0.1_mw20_ep12,main_effect,max_windows_fraction,0.2,0.001,0.0005,0.2,0.1,static_only,0,5,0.5814814814814816,0.06592956710710333,0.4996322353355933,0.6633307276273699,0.4953703703703704,0.6574074074074074,0.5909828959206623,0.06641459347082734,0.5085315065486977,0.6734342852926269,0.5011850894203835,0.6651851851851852,0.5814814814814816,0.06592956710710333,0.4996322353355933,0.6633307276273699,0.4953703703703704,0.6574074074074074,0.5909828959206623,0.06641459347082734,0.5085315065486977,0.6734342852926269,0.5011850894203835,0.6651851851851852,0.45555555555555555,0.09285841472470434,0.3402750891879791,0.570836021923132,0.375,0.5555555555555556,0.5119749531514237,0.05852412965932915,0.43931929797051456,0.5846306083323329,0.45454545454545453,0.5882352941176471,12.0,0.0,12.0,12.0,12.0,12.0,38.02673975322396,0.12551785993941206,37.870913730626285,38.18256577582163,37.86753034312278,38.15827828273177,0.9938638222469033,0.000826155158488757,0.992838179581724,0.9948894649120825,0.9928548259949774,0.9948395386718071,0.538593071069641,0.030943670233264647,0.5001775893258394,0.5770085528134427,0.5012930585925013,0.5857368632132183,0.45527075117726223,0.030730775441406715,0.41711957085369666,0.4934219315008278,0.40811880315323756,0.49197540179411836,0.3384565257386392,0.00370920748164186,0.3338516746908858,0.34306137678639265,0.3332478296437026,0.3437065742347739,1.285905932264347,0.03596582310468783,1.241255623801789,1.3305562407269047,1.2338099651053094,1.3246157111348502,0.9474494065257077,0.03785109366208641,0.9004586007616366,0.9944402122897789,0.8948919789644554,0.9864109698503712
54,2,inceptiontime,inception_time,0,15,0,5.0,2.5,50.0,1.0,stage1,s1_172,main_effect_max_windows_fraction-1p0_lr0.001_wd0.0005_do0.2_ls0.1_mw100_ep15,main_effect,max_windows_fraction,1.0,0.001,0.0005,0.2,0.1,static_only,0,5,0.5814814814814814,0.040966336677090626,0.5306232107312514,0.6323397522317113,0.5462962962962963,0.6481481481481481,0.5928327602145971,0.03902515951287887,0.5443843928582152,0.641281127570979,0.5525814536340852,0.6542986425339367,0.5814814814814814,0.040966336677090626,0.5306232107312514,0.6323397522317113,0.5462962962962963,0.6481481481481481,0.5928327602145971,0.03902515951287887,0.5443843928582152,0.641281127570979,0.5525814536340852,0.6542986425339367,0.48888888888888893,0.04648111258522644,0.4311842171906419,0.5465935605871359,0.4444444444444444,0.5555555555555556,0.513047324192835,0.04291276858592541,0.4597726264675329,0.5663220219181372,0.47058823529411764,0.5714285714285714,15.0,0.0,15.0,15.0,15.0,15.0,240.3224523337558,0.9045532663042782,239.1994811662744,241.44542350123717,239.1625087093562,241.40070167649537,0.9990853544118139,0.00023284896507804804,0.9987962805850963,0.9993744282385315,0.9987101084632926,0.9993541641094182,0.5550539766820436,0.025452157403860014,0.523456015589592,0.5866519377744952,0.5187272116418441,0.583232936630543,0.4440313777297703,0.02565052646500681,0.4121871484025044,0.4758756070570362,0.41547717183274957,0.48062695246757414,0.31047617712826436,0.0007462726175524469,0.3095497058370642,0.3114026484194645,0.3095153914873319,0.3114721204126859,1.224709977010963,0.037495341958318336,1.1781608245148594,1.2712591295070668,1.16262878542062,1.2574883923898523,0.9142337998826988,0.03799595322397949,0.8670631560511532,0.9614044437142444,0.8511566650079342,0.9474041440537673
55,2,inceptiontime,inception_time,0,10,0,5.0,2.5,50.0,0.9,stage1,s1_076,main_effect_weight_decay-0p0_lr0.001_wd0_do0.2_ls0.1_mw90_ep10,main_effect,weight_decay,0.0,0.001,0.0,0.2,0.1,static_only,0,5,0.5805555555555555,0.06352891071449789,0.5016866401567335,0.6594244709543775,0.5,0.6527777777777778,0.5857585983051146,0.06463313048499164,0.5055188327739463,0.6659983638362829,0.4968944099378882,0.6619548872180451,0.5805555555555555,0.06352891071449789,0.5016866401567335,0.6594244709543775,0.5,0.6527777777777778,0.5857585983051146,0.06463313048499164,0.5055188327739463,0.6659983638362829,0.4968944099378882,0.6619548872180451,0.4305555555555555,0.1194767398200365,0.28222937179111207,0.578881739319999,0.3333333333333333,0.625,0.44672641749300784,0.11095525462718085,0.3089793588416646,0.5844734761443511,0.34782608695652173,0.631578947368421,10.0,0.0,10.0,10.0,10.0,10.0,143.95334940589964,0.6871932054569695,143.10022313355728,144.806475678242,142.8095205500722,144.65683989599347,0.9972137957957112,0.00042672527450172195,0.9966840313279327,0.9977435602634898,0.9967478126117312,0.9978028864670622,0.5617776141959038,0.03181872164783643,0.5222757867992444,0.6012794415925632,0.5159844508278636,0.602341635853566,0.4354361815998076,0.03163391201881181,0.39616378887836146,0.4747085743212538,0.39511111886587735,0.48119246841756047,0.3182965632337302,0.001093423236342104,0.3169391166200187,0.31965400984744163,0.316877051860993,0.31953105358823086,1.221525511822855,0.07782744751891155,1.1249054642722125,1.3181455593734974,1.1717014780026689,1.3552858958272653,0.9032289485891247,0.07824586709160952,0.8060894478083045,1.000368449369945,0.852170424414438,1.037289465939431
56,2,inceptiontime,inception_time,0,12,0,5.0,2.5,50.0,0.9,stage1,s1_144,strong_combo_combined_regularization-wd0p01_do0p6_ls0p3_mw0p9_lr0.001_wd0.01_do0.6_ls0.3_mw90_ep12,strong_combo,combined_regularization,wd0.01_do0.6_ls0.3_mw0.9,0.001,0.01,0.6,0.3,static_only,0,5,0.5805555555555555,0.0658482428290707,0.49880727064970565,0.6623038404614053,0.5324074074074074,0.6944444444444443,0.5814696787436052,0.07228556223598136,0.4917296874793624,0.671209670007848,0.5261911527896183,0.7080745341614906,0.5805555555555555,0.0658482428290707,0.49880727064970565,0.6623038404614053,0.5324074074074074,0.6944444444444443,0.5814696787436052,0.07228556223598136,0.4917296874793624,0.671209670007848,0.5261911527896183,0.7080745341614906,0.48888888888888893,0.10504261333993907,0.35848216710500336,0.6192956106727745,0.4166666666666667,0.6666666666666666,0.4763299553230903,0.07094095950536333,0.3882592412086277,0.564400669437553,0.42105263157894735,0.5714285714285714,12.0,0.0,12.0,12.0,12.0,12.0,166.13144693840295,0.475568431779445,165.5410454032511,166.7218484735548,165.51001518033445,166.7730145798996,0.9967648431504182,0.00044262762999260703,0.9962153364658167,0.9973143498350198,0.9961059834661938,0.9971959051194939,0.546865596465596,0.033915703253647636,0.5047604399231739,0.588970753008018,0.5045673734980493,0.5893408794253002,0.4498992466848222,0.0336098231445609,0.4081738295740135,0.49162466379563086,0.40763262781256504,0.4919620439955118,0.6756163839057114,0.0005922454598495728,0.6748811319307779,0.676351635880645,0.6747970841527644,0.6763591711475934,1.150222589929967,0.03491310380789444,1.106879195567206,1.193565984292728,1.0918571089102982,1.185259680654169,0.47460620602425563,0.03449294577171742,0.43178442313313303,0.5174279889153782,0.4170600247575338,0.5096647133415151
57,2,inceptiontime,inception_time,0,15,0,5.0,2.5,50.0,0.9,stage1,s1_162,main_effect_dropout-0p4_lr0.001_wd0.0005_do0.4_ls0.1_mw90_ep15,main_effect,dropout,0.4,0.001,0.0005,0.4,0.1,static_only,0,5,0.5805555555555555,0.06697779764391394,0.49740496794801814,0.6637061431630928,0.5231481481481481,0.6898148148148149,0.5814305144459944,0.06678622891262498,0.4985177527021648,0.6643432761898239,0.5257936507936508,0.6891025641025642,0.5805555555555555,0.06697779764391394,0.49740496794801814,0.6637061431630928,0.5231481481481481,0.6898148148148149,0.5814305144459944,0.06678622891262498,0.4985177527021648,0.6643432761898239,0.5257936507936508,0.6891025641025642,0.43888888888888894,0.01242259987499881,0.42346666666666677,0.4543111111111111,0.4166666666666667,0.4444444444444444,0.4735662686127082,0.032291336038024275,0.4334777070199675,0.5136548302054489,0.42105263157894735,0.5,15.0,0.0,15.0,15.0,15.0,15.0,218.70987171866,1.4045194903816083,216.96621001224852,220.45353342507147,217.18482265993953,220.51344987843186,0.998089419607631,0.0003264617920462594,0.9976841287381943,0.9984947104770676,0.9976980504588442,0.998564293151122,0.5599570428213596,0.05382952548531407,0.4931295741348689,0.6267845115078503,0.4851457763248216,0.6126765960632227,0.43813237678627137,0.054039260986977276,0.3710445288275601,0.5052202247449826,0.3850214543956215,0.5134185168263005,0.31734162473087224,0.0008960001844298181,0.3162292719146764,0.31845397754706806,0.31595632792593775,0.3183457761208234,1.2524634435425,0.10474787397336383,1.122422630348982,1.382504256736018,1.1234979554005868,1.3552458416998747,0.9351218188116277,0.10525334643019826,0.8044534792842539,1.0657901583390015,0.8051521792797635,1.0375938624028191
58,2,inceptiontime,inception_time,0,12,0,5.0,2.5,50.0,0.9,stage1,s1_127,main_effect_dropout-0p6_lr0.001_wd0.0005_do0.6_ls0.1_mw90_ep12,main_effect,dropout,0.6,0.001,0.0005,0.6,0.1,static_only,0,5,0.5796296296296297,0.03766823260519999,0.5328658394567771,0.6263934198024823,0.5231481481481481,0.625,0.5779897933238894,0.03902953986307822,0.5295359879163053,0.6264435987314736,0.5376984126984127,0.6271929824561403,0.5796296296296297,0.03766823260519999,0.5328658394567771,0.6263934198024823,0.5231481481481481,0.625,0.5779897933238894,0.03902953986307822,0.5295359879163053,0.6264435987314736,0.5376984126984127,0.6271929824561403,0.43888888888888883,0.10829771494232183,0.3044410725859009,0.5733367051918767,0.3333333333333333,0.5833333333333334,0.4602250190694127,0.08855009271165591,0.3502931834360392,0.5701568547027862,0.375,0.5833333333333334,12.0,0.0,12.0,12.0,12.0,12.0,166.13033183384687,0.760057159776559,165.18674751674624,167.0739161509475,165.33800952509046,167.04508969839662,0.9960041070049901,0.0007928470461884837,0.9950198151934861,0.996988398816494,0.9948845824770365,0.9970087063789522,0.5562570291607987,0.02211238240206122,0.5288052816442688,0.5837087766773286,0.5270819989959791,0.583792759381084,0.4397470778441912,0.02228008158800314,0.41208713766766203,0.4674070180207204,0.4110918230959525,0.4688619779013137,0.3314404082733391,0.0021521366828686204,0.3287686060330855,0.3341122105135927,0.3291449248980629,0.33463642298307517,1.281548138887754,0.06383489682682456,1.2022993524580126,1.3607969253174956,1.2282885330605453,1.382717041579575,0.950107730614415,0.06384094054179217,0.8708514411244271,1.029364020104403,0.8991436081624824,1.0529119173716273
59,2,inceptiontime,inception_time,0,15,0,5.0,2.5,50.0,0.9,stage1,s1_150,main_effect_weight_decay-0p0_lr0.001_wd0_do0.2_ls0.1_mw90_ep15,main_effect,weight_decay,0.0,0.001,0.0,0.2,0.1,static_only,0,5,0.5796296296296296,0.06550557835490371,0.4983067506550213,0.6609525086042379,0.5277777777777778,0.6898148148148149,0.5856738171051896,0.07048261274977483,0.49817212441866066,0.6731755097917186,0.5202941176470589,0.698743086978381,0.5796296296296296,0.06550557835490371,0.4983067506550213,0.6609525086042379,0.5277777777777778,0.6898148148148149,0.5856738171051896,0.07048261274977483,0.49817212441866066,0.6731755097917186,0.5202941176470589,0.698743086978381,0.4305555555555555,0.08448281292080861,0.3256731051881956,0.5354380059229155,0.3333333333333333,0.5555555555555556,0.4632352941176471,0.05821397103532276,0.3909646899946241,0.5355058982406701,0.375,0.5384615384615384,15.0,0.0,15.0,15.0,15.0,15.0,201.79851884357632,0.7838293737047631,200.8254221563113,202.77161553084133,200.71955023054034,202.60512292105705,0.998763317889486,0.00032670278805990515,0.9983577278319474,0.9991689079470246,0.9983292291520993,0.9992267519889857,0.5552013832133442,0.03415746011014569,0.5127960940093074,0.5976066724173811,0.5131198332893481,0.6066180422360251,0.4435619346761417,0.03420294913900888,0.4011001724375661,0.48602369691471725,0.3921295266694317,0.485744839518201,0.3112879523644775,0.000667068915744158,0.31045980969227827,0.3121160950366767,0.31034027130785674,0.3119876847070342,1.215754736434064,0.05778573431801056,1.1440157731820793,1.2874936996860487,1.130064268397572,1.281493644784397,0.9044667840695866,0.057667560565993516,0.8328745293876901,0.976059038751483,0.8187565216311644,0.9705192716701474
60,2,inceptiontime,inception_time,0,10,0,5.0,2.5,50.0,0.9,stage1,s1_104,strong_combo_combined_regularization-wd0p005_do0p4_ls0p15_mw0p9_lr0.001_wd0.005_do0.4_ls0.15_mw90_ep10,strong_combo,combined_regularization,wd0.005_do0.4_ls0.15_mw0.9,0.001,0.005,0.4,0.15,static_only,0,5,0.5796296296296296,0.0650129247464517,0.4989183628380247,0.6603408964212345,0.4861111111111111,0.6620370370370371,0.5783985984966378,0.08555594763601632,0.47218388900326164,0.6846133079900139,0.441077441077441,0.6634615384615384,0.5796296296296296,0.0650129247464517,0.4989183628380247,0.6603408964212345,0.4861111111111111,0.6620370370370371,0.5783985984966378,0.08555594763601632,0.47218388900326164,0.6846133079900139,0.441077441077441,0.6634615384615384,0.4111111111111111,0.13944333775567924,0.23799709601637012,0.5842251262058521,0.16666666666666666,0.5,0.4570806100217865,0.13909400036736186,0.2844002850472598,0.6297609349963132,0.2222222222222222,0.5925925925925926,10.0,0.0,10.0,10.0,10.0,10.0,133.50803018752487,1.706948092463986,131.38891397443984,135.6271464006099,132.11578067950904,136.375383682549,0.9965129542970205,0.0005502959814081033,0.9958297811288698,0.9971961274651712,0.9956873461992497,0.9970102451223003,0.5442874080848591,0.03437840522038071,0.5016078232725563,0.5869669928971619,0.4909322236468518,0.5814251744248633,0.45222554621216127,0.03464206158241619,0.40921864126989127,0.49523245115443126,0.41537405923258175,0.5060780214754486,0.42745142905952227,0.0011176145171349378,0.426063949818826,0.42883890830021854,0.42659088864179545,0.42900102467359336,1.2345690892038157,0.032817359449240906,1.1938274879878477,1.2753106904197837,1.1899752515846778,1.271605622775427,0.8071176601442935,0.03315043018959933,0.7659625632812617,0.8482727570073254,0.7616938461104602,0.844836628099106
61,2,inceptiontime,inception_time,0,10,0,5.0,2.5,50.0,0.9,stage1,s1_086,main_effect_dropout-0p1_lr0.001_wd0.0005_do0.1_ls0.1_mw90_ep10,main_effect,dropout,0.1,0.001,0.0005,0.1,0.1,static_only,0,5,0.5787037037037037,0.06423350428477598,0.4989600600896513,0.6584473473177561,0.5046296296296297,0.6527777777777778,0.5898136621126705,0.06631665133055509,0.5074838644741109,0.6721434597512301,0.5185185185185185,0.6619548872180451,0.5787037037037037,0.06423350428477598,0.4989600600896513,0.6584473473177561,0.5046296296296297,0.6527777777777778,0.5898136621126705,0.06631665133055509,0.5074838644741109,0.6721434597512301,0.5185185185185185,0.6619548872180451,0.45555555555555555,0.1593897505882753,0.2576787682282822,0.6534323428828289,0.2222222222222222,0.625,0.4907602339181286,0.13639741310035364,0.3214276274962305,0.6600928403400268,0.26666666666666666,0.631578947368421,10.0,0.0,10.0,10.0,10.0,10.0,145.5415358653292,0.7132910874626391,144.6560099874396,146.4270617432188,144.80193687044084,146.59527824167162,0.9977519807073458,0.0002972669410795564,0.9973829342218452,0.9981210271928465,0.9973586406048636,0.9980481059924886,0.5445764839534811,0.009362815131906264,0.5329528772171451,0.5562000906898171,0.5358740568005226,0.5571433961577764,0.4531754967538647,0.009254432185275463,0.4416864436459848,0.4646645498617446,0.44081121978375104,0.46217404919196603,0.3149101955395108,0.0009168778630861515,0.3137719238172114,0.31604846726181013,0.3138031502728113,0.3160046077354357,1.2186218044283876,0.05914096365957298,1.1452003714616925,1.2920432373950828,1.1486203079554607,1.278511825921332,0.9037116088888768,0.05914576435269715,0.8302842160299749,0.9771390017477787,0.8338855447796105,0.9625072181858962
62,2,inceptiontime,inception_time,0,10,0,5.0,2.5,50.0,0.9,stage1,s1_080,main_effect_weight_decay-0p001_lr0.001_wd0.001_do0.2_ls0.1_mw90_ep10,main_effect,weight_decay,0.001,0.001,0.001,0.2,0.1,static_only,0,5,0.5787037037037037,0.023832477178210663,0.5491165188272015,0.608290888580206,0.5462962962962963,0.6064814814814815,0.585971319610661,0.013004542902440274,0.569826635522148,0.602116003699174,0.5705003248862898,0.5980392156862745,0.5787037037037037,0.023832477178210663,0.5491165188272015,0.608290888580206,0.5462962962962963,0.6064814814814815,0.585971319610661,0.013004542902440274,0.569826635522148,0.602116003699174,0.5705003248862898,0.5980392156862745,0.4722222222222222,0.039283710065919304,0.42345287341873655,0.5209915710257079,0.4166666666666667,0.5,0.5034114128743284,0.05238734932970619,0.43837435532392666,0.5684484704247302,0.43478260869565216,0.5714285714285714,10.0,0.0,10.0,10.0,10.0,10.0,143.8987354326993,0.4874779820791169,143.29354860838606,144.50392225701256,143.1660932386294,144.40037580393255,0.9972976339774984,0.00041662394085242643,0.9967804099613039,0.9978148579936928,0.9970122382092844,0.9980278460612727,0.5473110276395294,0.02528129758934386,0.5159251830166438,0.5786968722624151,0.5113881348273617,0.5823236587252127,0.449986606337969,0.0249658993120345,0.41899231761884875,0.48098089505708924,0.41570418733605996,0.4857172043318315,0.31798437413302316,0.0009725199291501151,0.3167770247364546,0.31919172352959174,0.3163056069741498,0.3186877638401465,1.237921064136797,0.04069028110353466,1.187405506702934,1.28843662157066,1.1958267730109207,1.2960828371013715,0.9199366900037738,0.040451806144601817,0.8697171908707582,0.9701561891367894,0.8775973127773341,0.9780011174711337
63,2,inceptiontime,inception_time,0,12,0,5.0,2.5,50.0,0.9,stage1,s1_121,main_effect_weight_decay-0p02_lr0.001_wd0.02_do0.2_ls0.1_mw90_ep12,main_effect,weight_decay,0.02,0.001,0.02,0.2,0.1,static_only,0,5,0.5787037037037036,0.061680150900343636,0.5021299587986832,0.6552774486087241,0.5,0.6712962962962963,0.5800205286206094,0.061689903633000476,0.5034346760399154,0.6566063812013033,0.491332764990054,0.6625935398313915,0.5787037037037036,0.061680150900343636,0.5021299587986832,0.6552774486087241,0.5,0.6712962962962963,0.5800205286206094,0.061689903633000476,0.5034346760399154,0.6566063812013033,0.491332764990054,0.6625935398313915,0.48888888888888893,0.0912870929175277,0.37555916345612056,0.6022186143216574,0.3333333333333333,0.5555555555555556,0.4907332433648223,0.09028654987681972,0.3786456570391624,0.6028208296904822,0.3333333333333333,0.5555555555555556,12.0,0.0,12.0,12.0,12.0,12.0,166.454527349025,0.4268185448101306,165.92464708942853,166.98440760862147,165.8073062337935,166.85654263477772,0.9980178592446622,0.0005342417275702579,0.9973546168698069,0.9986811016195176,0.9975137297279877,0.9987661629336065,0.5464834047116793,0.040571321040445106,0.49611553202553416,0.5968512773978245,0.5088682877796806,0.5928328658368839,0.451534454532983,0.040517723441160614,0.40123312138727707,0.501835787678689,0.4055564005761364,0.488833461081124,0.3147703046471585,0.0017711865132962815,0.31257143868673803,0.31696917060757895,0.31252817774687064,0.3168820563756346,1.2654699167235193,0.07657789000066992,1.1704011510236716,1.360538682423367,1.1742584343460285,1.36319519057317,0.9506996120763607,0.07717950236116236,0.8548839657228245,1.046515258429897,0.8608634155585285,1.0506670128262994
64,2,inceptiontime,inception_time,0,12,0,5.0,2.5,50.0,0.9,stage1,s1_120,main_effect_weight_decay-0p01_lr0.001_wd0.01_do0.2_ls0.1_mw90_ep12,main_effect,weight_decay,0.01,0.001,0.01,0.2,0.1,static_only,0,5,0.5787037037037036,0.053890957068624096,0.5117999698602568,0.6456074375471504,0.4953703703703704,0.6342592592592592,0.5789632187557885,0.052060103540066224,0.5143324253803498,0.6435940121312271,0.4985294117647059,0.6278431372549019,0.5787037037037036,0.053890957068624096,0.5117999698602568,0.6456074375471504,0.4953703703703704,0.6342592592592592,0.5789632187557885,0.052060103540066224,0.5143324253803498,0.6435940121312271,0.4985294117647059,0.6278431372549019,0.4611111111111111,0.037267799624996496,0.4148444444444444,0.5073777777777777,0.4166666666666667,0.5,0.5030769230769231,0.076266428048895,0.4083948264706931,0.5977590196831531,0.4,0.6153846153846154,12.0,0.0,12.0,12.0,12.0,12.0,165.96291705444455,0.4465366837075032,165.4085574167031,166.517276692186,165.40902448724955,166.56663378886878,0.9981809895493197,0.00041478913345897086,0.9976660433821778,0.9986959357164615,0.9977139393802332,0.9986054649422972,0.5513464581298313,0.03625797036056946,0.5063334590914556,0.596359457168207,0.5150735480021609,0.6036431510058112,0.4468345314194882,0.03591521206230373,0.40224705479168316,0.49142200804729325,0.39496231393648595,0.48276477226998393,0.3146201200837623,0.0015966975724074392,0.31263787602606635,0.3166023641414582,0.3126477072878753,0.3160915452519481,1.2559064671605564,0.06957304426957539,1.1695339718537319,1.342278962467381,1.1379577702431436,1.3130451723047927,0.9412863470767944,0.0688437210891736,0.8558192809291759,1.0267534132244127,0.8253100629552683,0.9999011452273894
65,2,inceptiontime,inception_time,0,5,0,5.0,2.5,50.0,0.9,stage1,s1_031,strong_combo_combined_regularization-wd0p005_do0p5_ls0p2_mw0p9_lr0.001_wd0.005_do0.5_ls0.2_mw90_ep5,strong_combo,combined_regularization,wd0.005_do0.5_ls0.2_mw0.9,0.001,0.005,0.5,0.2,static_only,0,5,0.5777777777777778,0.06639928375669366,0.4953453948791685,0.6602101606763872,0.49074074074074076,0.6574074074074074,0.5858772426179883,0.06855420230478951,0.5007696038909749,0.6709848813450018,0.4941338854382333,0.6594117647058824,0.5777777777777778,0.06639928375669366,0.4953453948791685,0.6602101606763872,0.49074074074074076,0.6574074074074074,0.5858772426179883,0.06855420230478951,0.5007696038909749,0.6709848813450018,0.4941338854382333,0.6594117647058824,0.49444444444444435,0.06334307917217434,0.41580623239036896,0.5730826564985197,0.4166666666666667,0.5555555555555556,0.5058667384573967,0.05691924747297238,0.43520348824545807,0.5765299886693354,0.43478260869565216,0.5882352941176471,5.0,0.0,5.0,5.0,5.0,5.0,65.8429352434352,0.3773299433479692,65.37449334753848,66.31137713933194,65.30690674018115,66.34079663921148,0.9886657455392263,0.00045118532446939655,0.9881056147769551,0.9892258763014974,0.9882625062580859,0.9892983643650896,0.5484817320432476,0.05071874688696677,0.48551618592615375,0.6114472781603414,0.48361339486219646,0.5984036802384488,0.4401840134959786,0.05031874998050579,0.37771504951480767,0.5026529774771495,0.3905656916386401,0.5046491113958894,0.5385388355141149,0.0008530200879330496,0.5374798409808852,0.5395978300473445,0.5372657088162971,0.5392626775789379,1.1870001712400609,0.05517922463184435,1.1184970983821096,1.255503244098012,1.1356081423602897,1.2660307724432913,0.6484613357259461,0.054580629763669467,0.580701397410761,0.7162212740411312,0.5983424335439926,0.7269675840255664
66,2,inceptiontime,inception_time,0,5,0,5.0,2.5,50.0,0.9,stage1,s1_033,strong_combo_combined_regularization-wd0p01_do0p6_ls0p3_mw0p9_lr0.001_wd0.01_do0.6_ls0.3_mw90_ep5,strong_combo,combined_regularization,wd0.01_do0.6_ls0.3_mw0.9,0.001,0.01,0.6,0.3,static_only,0,5,0.5777777777777778,0.030429030972509208,0.5400012026335217,0.615554352922034,0.5324074074074074,0.6018518518518519,0.5780598064434381,0.0320830062045951,0.5382298790350866,0.6178897338517897,0.5265151515151515,0.6047619047619048,0.5777777777777778,0.030429030972509208,0.5400012026335217,0.615554352922034,0.5324074074074074,0.6018518518518519,0.5780598064434381,0.0320830062045951,0.5382298790350866,0.6178897338517897,0.5265151515151515,0.6047619047619048,0.4833333333333333,0.03726779962499649,0.4370666666666666,0.5296,0.4166666666666667,0.5,0.49125691699604745,0.025280911734299704,0.4598715513986715,0.5226422825934234,0.45454545454545453,0.5217391304347826,5.0,0.0,5.0,5.0,5.0,5.0,65.61742715239525,0.10285732761249795,65.48973338622828,65.74512091856222,65.4579005362466,65.73820021841675,0.9864656238042082,0.0006417111689587421,0.9856689618856286,0.9872622857227878,0.9854892015213043,0.9870598731768314,0.5567197871569222,0.04914278431385738,0.4957107433228418,0.6177288309910025,0.49168298459757265,0.6062395926726787,0.42974583664728605,0.0486632254450852,0.3693321483359837,0.4901595249585884,0.38082028050415273,0.4938062169237316,0.6926794150294324,0.0010355994889368176,0.6913937545708881,0.6939650754879767,0.6916408068972861,0.6942164824943525,1.1435452912905408,0.04106657323625586,1.09256258036629,1.1945280022147917,1.0922350908162248,1.1929755975057659,0.45086587626110824,0.040739477212077956,0.40028924358324997,0.5014425089389666,0.3990648765540533,0.49875911501141335
67,2,inceptiontime,inception_time,0,8,0,5.0,2.5,50.0,0.9,stage1,s1_056,main_effect_label_smoothing-0p03_lr0.001_wd0.0005_do0.2_ls0.03_mw90_ep8,main_effect,label_smoothing,0.03,0.001,0.0005,0.2,0.03,static_only,0,5,0.5777777777777777,0.053631816509535475,0.5111957578532584,0.644359797702297,0.5046296296296297,0.6527777777777778,0.5885946221198703,0.05887836545583198,0.5154991956167175,0.6616900486230232,0.5108921729611384,0.6720647773279352,0.5777777777777777,0.053631816509535475,0.5111957578532584,0.644359797702297,0.5046296296296297,0.6527777777777778,0.5885946221198703,0.05887836545583198,0.5154991956167175,0.6616900486230232,0.5108921729611384,0.6720647773279352,0.44722222222222224,0.145800260800119,0.26621631003448853,0.628228134409956,0.2222222222222222,0.625,0.4857435897435898,0.13168527818925593,0.32226093361159,0.6492262458755895,0.26666666666666666,0.6153846153846154,8.0,0.0,8.0,8.0,8.0,8.0,103.96802959926427,0.3520769858515081,103.53093836475868,104.40512083376986,103.54794827476144,104.50068761128932,0.995074766168219,0.0005304465980416408,0.9944162353136203,0.9957332970228177,0.9942673281524101,0.9956902254525968,0.5315547816198928,0.018657359091956593,0.5083923244135683,0.5547172388262173,0.5006419118967884,0.5488654156978396,0.4635199845483262,0.018968298275326773,0.4399715072470309,0.48706846184962155,0.4463563491411735,0.49504831355580836,0.1429199119994829,0.0013616010880009414,0.1412295319849554,0.1446102920140104,0.14108977613874152,0.1446337181650331,1.5405277678424414,0.0784278465842764,1.4431623459014746,1.6378931897834081,1.4182763578956048,1.630047898131012,1.3976078558429585,0.07917989262361355,1.2993087951100557,1.4959069165758614,1.2744619706164986,1.4876320805486447
