model,fold,epoch,train_loss,train_balanced_accuracy,val_loss,val_balanced_accuracy
cnn,1,1,0.17124162445672683,0.9360802036364806,3.666592159992069,0.4524215379214132
cnn,1,2,0.02543607780946389,0.991563651730564,3.392785526444914,0.547199863633426
cnn,1,3,0.017884456779551878,0.9948690214550142,3.0434532503733713,0.47196695229861624
cnn,1,4,0.012391707936365579,0.9960294697281361,4.062688410312474,0.46915427069547855
cnn,1,5,0.014313574526345798,0.9952558375460548,4.138047397718147,0.4496024637405098
cnn,1,6,0.00983520749124716,0.9965250394730439,4.200718084970853,0.39989397370483903
cnn,1,7,0.006888788129326136,0.9978098412258399,3.431319790515961,0.48742157464585173
cnn,1,8,0.010012873452248482,0.9965631874554669,3.1304129392363507,0.5331689078149878
cnn,1,9,0.008375104257472217,0.9973528424921545,2.7665494102492176,0.5420416426510938
cnn,1,10,0.006998788355815036,0.9977629117878103,3.596868929314791,0.5445107245146655
cnn,1,11,0.00540233206350725,0.9980884677014128,3.830495612683104,0.5500999472956956
cnn,1,12,0.00531317206329284,0.9981348331010432,3.4606878687941545,0.4414987218106525
cnn,1,13,0.00985806745809405,0.9963465262053314,3.4292244758598867,0.5376445067195516
cnn,1,14,0.0031999975087093468,0.999032395733999,3.3437415623671636,0.5349146287286591
cnn,1,15,0.0027720973824786584,0.9988622408930938,4.318814051542657,0.5171273152943313
cnn,1,16,0.005388390797157078,0.9979798550571454,3.3515923008051933,0.6201406017752783
cnn,1,17,0.009908117476365554,0.9966637236921266,3.457662733121499,0.5971997657717415
cnn,1,18,0.0023424549605366224,0.9992258037795194,3.7321331554361086,0.5838132817583316
cnn,1,19,0.002874300958807099,0.9991174731544517,3.459195033709558,0.6207782495693086
cnn,1,20,0.00711765626216321,0.9981504329268501,3.1592796606508284,0.5854792085696193
cnn,1,21,0.0037869582189986187,0.9984049601402089,3.144849094101249,0.6251348044701449
cnn,1,22,0.002203591539276272,0.9993578106380016,2.9491431154390964,0.625308824642658
cnn,1,23,0.005126068443831314,0.9978098412258399,3.7380182377602096,0.5614374707085773
cnn,1,24,0.004756583702216977,0.9984521715974383,4.561108020814934,0.4293676558883491
cnn,1,25,0.005256390411803057,0.9986454386333586,3.7744591938216057,0.5090425090742511
cnn,1,26,0.0024433904273780268,0.9991408673686667,3.5294311561265506,0.4237552304176507
cnn,1,27,0.001576312411486022,0.9994427470488545,4.540748936022559,0.5062241820094321
cnn,1,28,0.003136630260795388,0.9989471773039466,4.062520943203574,0.4328000965905347
cnn,1,29,0.006833068592905398,0.9981114388868283,2.748335691793081,0.5742024488444882
cnn,1,30,0.0035737625560051086,0.9988389876884788,3.683419248128536,0.5594858772225625
cnn,1,31,0.00033076925142127027,1.0,3.8343825303949237,0.585992556240426
cnn,1,32,0.0043441253345592136,0.9985834734079213,2.719957857223798,0.5907872789407148
cnn,2,1,0.1743116098463476,0.9343354181614916,1.7838700707546773,0.6631365626084582
cnn,2,2,0.01981767373933782,0.9938282242742279,1.4923796836867218,0.6906664813752686
cnn,2,3,0.01440612991360785,0.9948213371237268,2.0911587601784998,0.6640307796106345
cnn,2,4,0.014703416788238211,0.99543830485124,1.5864463858983637,0.7165886262171225
cnn,2,5,0.005986125892146476,0.9980448722754512,2.0734517585889396,0.6692198035660434
cnn,2,6,0.013759964285603178,0.9951581519507909,2.3594960920642802,0.6841876569071482
cnn,2,7,0.014446040006661196,0.9960757739299907,1.7398555803542501,0.7196891360919252
cnn,2,8,0.0032517182345304357,0.9989747924680099,1.510989850537305,0.7720563116077019
cnn,2,9,0.008934455191128008,0.9968528648788354,2.5174582595084964,0.6259236000402557
cnn,2,10,0.012056462050751424,0.9963501885300005,1.878996144407848,0.7802216361376839
cnn,2,11,0.006588732217315261,0.9981393088198094,1.8833800175175341,0.7189604358296022
cnn,2,12,0.0027940863176127094,0.9989550543640647,2.0089682622204617,0.7067850106283715
cnn,2,13,0.0004678249760831571,0.9998726763432645,2.1198358397838173,0.7226936221975597
cnn,2,14,0.01397715645855117,0.9953175411074238,1.775315063261767,0.7131592555144102
cnn,2,15,0.003757490700247708,0.9988918033419368,1.8880627248236947,0.7657786576896771
cnn,2,16,0.0026299968279808747,0.9995095634993362,2.5221479444026063,0.6960816809433491
cnn,2,17,0.012138251894882723,0.9965095485040397,2.1034980594472636,0.7225042546012999
cnn,2,18,0.005277598153409758,0.9982535126507064,2.002543214404968,0.7040225469174722
cnn,2,19,0.0043954848216539435,0.9988219924068898,2.049687431776935,0.7083323831907182
cnn,2,20,0.004119921082912466,0.9989616434595777,2.3604644321441124,0.6865673783154532
cnn,3,1,0.1655627615898201,0.9447864620129603,2.3745026267650693,0.597241881048037
cnn,3,2,0.03193885429482466,0.9896094945666184,2.7843644948272774,0.6087632100679852
cnn,3,3,0.014502370378638952,0.9951269562199014,2.494729468409624,0.5111397561559313
cnn,3,4,0.012915863592709393,0.9951449830840561,2.8005307767775562,0.6220908451856871
cnn,3,5,0.018909115749077096,0.9963382103028179,3.064076610590054,0.4873867122350026
cnn,3,6,0.021771945768613528,0.9931439550459115,3.7477003065711942,0.594987613472525
cnn,3,7,0.005404685254356145,0.9979570595974881,4.498804406594454,0.5742000815987086
cnn,3,8,0.00432822048261958,0.9986625310994639,3.440120357917619,0.6236591151995962
cnn,3,9,0.013465239602450803,0.995536589142387,5.770385777744187,0.5926633598974734
cnn,3,10,0.004976910045838806,0.9983993686592915,4.097893928214649,0.609680195663009
cnn,3,11,0.00530087952032721,0.9983043334011058,4.737614900431352,0.605183311259948
cnn,3,12,0.0022577554752143507,0.9992105126794826,4.915070448100215,0.6200611479508051
cnn,3,13,0.011219745346095144,0.9964534056807935,4.466208037336412,0.6376603363544853
cnn,3,14,0.005120214445962743,0.998231145932401,4.878933297949218,0.6346501015201835
cnn,3,15,0.005974536050974679,0.9981156639197147,4.887926188871312,0.6431528597695543
cnn,3,16,0.01102847852326727,0.9985674958412782,6.680623717736742,0.6378501989865154
cnn,3,17,0.022951020852112498,0.9934723742198157,4.759872213342959,0.6197062239991062
cnn,3,18,0.0022180148052250753,0.9993366319521986,4.730937890331887,0.6244317325944673
cnn,3,19,0.00385409279751682,0.9985687057864513,7.589741744645878,0.6257425341202806
cnn,3,20,0.0060939860750607346,0.998168595723726,6.222453366616301,0.5637107349687419
cnn,3,21,0.003494367069205644,0.9993581931069687,5.120098797677122,0.5945948300240644
cnn,3,22,0.0017948001908267364,0.9994952362744253,4.927057748548363,0.5986379927847961
cnn,3,23,0.005582308612564321,0.9981577673738892,6.175950697152105,0.6087671226325995
cnn,3,24,0.0013711471438971894,0.9995469581332634,5.590906721431478,0.6620844611844245
cnn,3,25,0.003548521174992703,0.9985363162818444,5.322885110721983,0.6226258666602327
cnn,3,26,0.013768199350822803,0.9982743637868449,5.111377266582859,0.574147642364641
cnn,3,27,0.022310792798891574,0.99279658569739,5.177546196419645,0.5810502323302605
cnn,3,28,0.003599103864731855,0.9986732639043971,4.480577336669096,0.5982671740393513
cnn,3,29,0.001565864909270496,0.9993582886518723,5.386142703314615,0.5717695203826141
cnn,3,30,0.0055004627631576415,0.9977466378715197,6.097622296554945,0.5580069276303791
cnn,3,31,0.013053234320247398,0.9986215420455591,6.55085530016098,0.5706456742359577
cnn,3,32,0.005628050679672577,0.9980724460652709,4.95874481859306,0.5679958952849901
cnn,3,33,0.0014397401482542289,0.9995361297834265,5.499953276557848,0.558403998597563
cnn,3,34,0.010813762741040588,0.9989989765532448,5.131402638812557,0.615299937203338
cnn,4,1,0.1792378819207587,0.9355665359763995,2.1069425512267173,0.5931123366739804
cnn,4,2,0.03908448791563777,0.9865681542071956,1.7577713485159396,0.7388003222044318
cnn,4,3,0.015323398815881874,0.994746305632984,2.094671336592183,0.6603511731799404
cnn,4,4,0.014313788438864451,0.9943227965691968,3.919728068078581,0.6185314198738857
cnn,4,5,0.012335751162477425,0.995801345605031,3.151978773188769,0.7041533930301053
cnn,4,6,0.01273014104724372,0.9963457062212129,2.986817278906893,0.70190099626401
cnn,4,7,0.008114892948085779,0.9970585040004801,5.644116521156733,0.5271946075233745
cnn,4,8,0.013410702631488906,0.9950121302802953,2.824748036559653,0.7601034216924628
cnn,4,9,0.00884363440310976,0.9973282596458014,1.8524258174199988,0.7804766945383382
cnn,4,10,0.0031603297527042396,0.9992162914751569,2.7571727813605986,0.7453055802644845
cnn,4,11,0.005030144641015853,0.998702338595635,2.7830783266695955,0.7598616695329024
cnn,4,12,0.008331329456060693,0.9969945369233955,2.17493739406078,0.7787990274565617
cnn,4,13,0.005928347308855293,0.9979630640777178,2.547060100381163,0.7552497084346399
cnn,4,14,0.010541663951831681,0.9964352317094183,2.241874712802539,0.7156103599596749
cnn,4,15,0.007273451238848966,0.9981299254389208,1.6901345224437179,0.7752135246792781
cnn,4,16,0.006812380521134602,0.9980629456913551,2.3479246789168142,0.7681254917076835
cnn,4,17,0.004045359914639376,0.9986938191252613,2.7535206401316183,0.6835593607305936
cnn,4,18,0.0045394571682317334,0.998814670677656,4.371743683327307,0.6900734942378778
cnn,4,19,0.0037337023277706025,0.9989230717616667,2.6813820838965974,0.7418490185613473
cnn,5,1,0.16354347331453636,0.9425007963837139,3.089735815302386,0.36780303030303035
cnn,5,2,0.02651112142166174,0.9920891093969226,5.747918122445296,0.3526515151515151
cnn,5,3,0.017248134185220976,0.9944617092073686,4.106354665370968,0.41439393939393937
cnn,5,4,0.01623759673751599,0.9940282806403532,3.511274118127475,0.35761058864507134
cnn,5,5,0.010488340869343095,0.9967804997053001,4.081429017579569,0.36402385928248
cnn,5,6,0.006771155020400561,0.9981197581251019,3.9108648338087746,0.49878091257401597
cnn,5,7,0.014736918431721677,0.99435366062472,2.3996617196361134,0.4229101358411704
cnn,5,8,0.002800259553971936,0.9989992770356727,3.3358267056643283,0.4197318007662835
cnn,5,9,0.0049793459261143315,0.998259437744931,3.8261871079606657,0.40914315569487986
cnn,5,10,0.01381696608817488,0.995953062176255,3.1265064135108966,0.4092824799721351
cnn,5,11,0.007126419544537547,0.9984254283069758,2.9081953171106028,0.4262756879136189
cnn,5,12,0.008589557838402576,0.9973553358231335,3.1566050050198897,0.4133359456635319
cnn,5,13,0.0025407717295518463,0.999184236858358,2.4892752259352364,0.48380790665273427
cnn,5,14,0.0013282229268811521,0.9995217849246963,5.593030715669453,0.3668146987112504
cnn,5,15,0.00874074334223454,0.9970747423470548,4.4610658133090615,0.3950757575757576
cnn,5,16,0.008598607066934416,0.996997584259734,6.042040062872333,0.34734848484848485
