rank_all_configs,model,resolved_model,extra_input,cnn_epochs,cnn_patience,window_sec,hop_sec,overlap_pct,max_windows_fraction,config_key,n_rows_total,n_repeats_done,n_repeats_expected,failed_count,missing_repeats,is_complete,subject_balanced_accuracy_mean,subject_balanced_accuracy_std,subject_balanced_accuracy_ci95_low,subject_balanced_accuracy_ci95_high,subject_balanced_accuracy_ci95_margin,subject_balanced_accuracy_min,subject_balanced_accuracy_max,subject_macro_f1_mean,subject_macro_f1_std,subject_macro_f1_ci95_low,subject_macro_f1_ci95_high,subject_macro_f1_ci95_margin,subject_macro_f1_min,subject_macro_f1_max,file_balanced_accuracy_mean,file_balanced_accuracy_std,file_balanced_accuracy_ci95_low,file_balanced_accuracy_ci95_high,file_balanced_accuracy_ci95_margin,file_balanced_accuracy_min,file_balanced_accuracy_max,file_macro_f1_mean,file_macro_f1_std,file_macro_f1_ci95_low,file_macro_f1_ci95_high,file_macro_f1_ci95_margin,file_macro_f1_min,file_macro_f1_max,window_balanced_accuracy_mean,window_balanced_accuracy_std,window_balanced_accuracy_ci95_low,window_balanced_accuracy_ci95_high,window_balanced_accuracy_ci95_margin,window_balanced_accuracy_min,window_balanced_accuracy_max,window_macro_f1_mean,window_macro_f1_std,window_macro_f1_ci95_low,window_macro_f1_ci95_high,window_macro_f1_ci95_margin,window_macro_f1_min,window_macro_f1_max,best_val_loss_mean,best_val_loss_std,best_val_loss_ci95_low,best_val_loss_ci95_high,best_val_loss_ci95_margin,best_val_loss_min,best_val_loss_max,best_val_accuracy_mean,best_val_accuracy_std,best_val_accuracy_ci95_low,best_val_accuracy_ci95_high,best_val_accuracy_ci95_margin,best_val_accuracy_min,best_val_accuracy_max,duration_sec_mean,duration_sec_std,duration_sec_ci95_low,duration_sec_ci95_high,duration_sec_ci95_margin,duration_sec_min,duration_sec_max,n_windows_mean,n_windows_std,n_windows_ci95_low,n_windows_ci95_high,n_windows_ci95_margin,n_windows_min,n_windows_max,n_extra_features_mean,n_extra_features_std,n_extra_features_ci95_low,n_extra_features_ci95_high,n_extra_features_ci95_margin,n_extra_features_min,n_extra_features_max,pre_frail_precision_mean,pre_frail_precision_std,pre_frail_precision_ci95_low,pre_frail_precision_ci95_high,pre_frail_recall_mean,pre_frail_recall_std,pre_frail_recall_ci95_low,pre_frail_recall_ci95_high,pre_frail_f1_mean,pre_frail_f1_std,pre_frail_f1_ci95_low,pre_frail_f1_ci95_high,pre_frail_support_mean,pre_frail_support_std,pre_frail_support_ci95_low,pre_frail_support_ci95_high,robust_non_frail_precision_mean,robust_non_frail_precision_std,robust_non_frail_precision_ci95_low,robust_non_frail_precision_ci95_high,robust_non_frail_recall_mean,robust_non_frail_recall_std,robust_non_frail_recall_ci95_low,robust_non_frail_recall_ci95_high,robust_non_frail_f1_mean,robust_non_frail_f1_std,robust_non_frail_f1_ci95_low,robust_non_frail_f1_ci95_high,robust_non_frail_support_mean,robust_non_frail_support_std,robust_non_frail_support_ci95_low,robust_non_frail_support_ci95_high,young_precision_mean,young_precision_std,young_precision_ci95_low,young_precision_ci95_high,young_recall_mean,young_recall_std,young_recall_ci95_low,young_recall_ci95_high,young_f1_mean,young_f1_std,young_f1_ci95_low,young_f1_ci95_high,young_support_mean,young_support_std,young_support_ci95_low,young_support_ci95_high,worst_class_recall_mean,worst_class_f1_mean,worst_class_recall_run_mean,worst_class_f1_run_mean
1,inceptiontime,inception_time,0,50,20,5.0,3.5,30.000000000000004,0.9,model=inceptiontime|resolved_model=inception_time|extra_input=0|cnn_epochs=50|cnn_patience=20|window_sec=5|hop_sec=3p5|overlap_pct=30|max_windows_fraction=0p9,5,5,5,0,0,True,0.737037037037037,0.04860008693337298,0.6767017329744591,0.797372341099615,0.06033530406257788,0.6990740740740741,0.8101851851851851,0.7232700902393997,0.04446803054951726,0.6680645893120597,0.7784755911667397,0.05520550092733999,0.6936026936026937,0.8007575757575758,0.7007407407407407,0.041275945824459294,0.6494981010886062,0.7519833803928752,0.05124263965213453,0.6546296296296297,0.7324074074074073,0.6930685360729039,0.04587357506395094,0.6361181009077279,0.7500189712380798,0.05695043516517591,0.6318637959980239,0.7290171436512901,0.6285303258646374,0.0179899887924358,0.6061963854879047,0.6508642662413702,0.022333940376732787,0.5991192946071889,0.6446903648419912,0.621416879898548,0.017542257302705495,0.5996387824693454,0.6431949773277505,0.021778097429202607,0.5969632327010815,0.6381157366626087,0.9949709395873134,0.29153886633439874,0.63303565806282,1.3569062211118068,0.36193528152449334,0.5626597858860906,1.3697852756409477,0.747287644900075,0.03471128386807305,0.7041948029170187,0.7903804868831313,0.043092841983056324,0.7195770893802983,0.8030915993180144,313.07756336499006,33.10317431885372,271.98113300875036,354.17399372122975,41.09643035623972,280.2201915998012,349.9569955840707,11295.0,0.0,11295.0,11295.0,0.0,11295.0,11295.0,0.0,0.0,0.0,0.0,0.0,0.0,0.0,0.615934065934066,0.039819899394928034,0.5664990568768198,0.6653690749913121,0.8444444444444444,0.12668615834434868,0.6871680203362937,1.0017208685525953,0.7077733860342555,0.048751913839260995,0.6472495941909008,0.7682971778776103,9.0,0.0,9.0,9.0,0.7866666666666667,0.13249737942901196,0.6221758153168795,0.951157518016454,0.5666666666666667,0.09128709291752768,0.4533369412338983,0.679996392099435,0.6529292929292929,0.08935141372798915,0.5420026453475688,0.763855940511017,12.0,0.0,12.0,12.0,0.841984126984127,0.11243976019389929,0.7023941067168232,0.9815741472514307,0.8,0.11180339887498948,0.6612,0.9388000000000001,0.8091075917546504,0.04243955938381719,0.7564203666635753,0.8617948168457256,8.0,0.0,8.0,8.0,0.5666666666666667,0.6529292929292929,0.5666666666666667,0.6383838383838384
2,inceptiontime,inception_time,0,50,20,5.0,2.5,50.0,0.9,model=inceptiontime|resolved_model=inception_time|extra_input=0|cnn_epochs=50|cnn_patience=20|window_sec=5|hop_sec=2p5|overlap_pct=50|max_windows_fraction=0p9,5,5,5,0,0,True,0.7268518518518519,0.06027415076986819,0.6520236068160098,0.8016800968876939,0.07482824503584208,0.6620370370370371,0.8101851851851851,0.7234989661181611,0.058721719612551515,0.6505980099376112,0.796399922298711,0.0729009561805499,0.6651515151515152,0.797635800731776,0.6807407407407408,0.04481137115633526,0.6251089944871775,0.736372486994304,0.05563174625356324,0.612037037037037,0.7194444444444444,0.6786792684049849,0.044799447797233355,0.6230623245837269,0.734296212226243,0.05561694382125799,0.6187710856700402,0.7193403231440914,0.6337521979611773,0.024409618957652653,0.6034485117994492,0.6640558841229054,0.030303686161728117,0.6008711108046433,0.6576579848653171,0.6305689987183907,0.02782533641868758,0.5960248190800577,0.6651131783567237,0.03454417963833301,0.6016839149516918,0.663859788908577,1.0024090936164605,0.30132125687847605,0.6283293171912698,1.376488870041651,0.3740797764251906,0.4995583225555525,1.3117471792786997,0.7692566122430026,0.0418200869088041,0.7173384405116375,0.8211747839743676,0.05191817173136504,0.7275465810213658,0.8396902586614701,396.89738159831614,42.325771260130864,344.35142047351206,449.4433427231202,52.545961124804094,362.9937517931685,470.2465363601223,15657.0,0.0,15657.0,15657.0,0.0,15657.0,15657.0,0.0,0.0,0.0,0.0,0.0,0.0,0.0,0.6872727272727273,0.07430115178800929,0.5950304522439784,0.7795150023014761,0.8222222222222222,0.06085806194501842,0.74666907193371,0.8977753725107344,0.7484210526315789,0.06795387061717646,0.6640587046477732,0.8327834006153846,9.0,0.0,9.0,9.0,0.6951282051282052,0.10434511342461135,0.5655874050356247,0.8246690052207857,0.6333333333333333,0.09501461875826149,0.5153760152522202,0.7512906514144464,0.6606666666666667,0.08894865988591656,0.5502400238597722,0.7710933094735613,12.0,0.0,12.0,12.0,0.8222222222222222,0.1050426133399391,0.6918155004383366,0.9526289440061078,0.725,0.10458250331675945,0.5951644886789442,0.8548355113210557,0.7614091790562378,0.040003313144244414,0.7117464682594983,0.8110718898529774,8.0,0.0,8.0,8.0,0.6333333333333333,0.6606666666666667,0.6083333333333333,0.6552121212121212
3,inceptiontime,inception_time,0,50,10,5.0,3.5,30.000000000000004,0.9,model=inceptiontime|resolved_model=inception_time|extra_input=0|cnn_epochs=50|cnn_patience=10|window_sec=5|hop_sec=3p5|overlap_pct=30|max_windows_fraction=0p9,5,5,5,0,0,True,0.712962962962963,0.052887313235166024,0.6473052177521135,0.7786207081738126,0.06565774521084955,0.6620370370370371,0.8009259259259259,0.7116415001120883,0.05124095051554841,0.648027656497991,0.7752553437261855,0.06361384361409725,0.673076923076923,0.8009259259259259,0.6798148148148149,0.044306305384730474,0.6248100900096526,0.7348195396199771,0.0550047248051623,0.6342592592592592,0.7444444444444445,0.6789317781015007,0.043409943450160526,0.6250398552126507,0.7328237009903508,0.05389192288885007,0.6338723500704758,0.7469487501745565,0.6208120909099144,0.022199795937257176,0.5932518225540604,0.6483723592657684,0.027560268355854,0.592643752902985,0.6523906502996745,0.619062803640268,0.02247268816033962,0.5911637491567562,0.6469618581237798,0.027899054483511848,0.5914923667120685,0.6531611452087615,0.9916014948302516,0.2817904663805829,0.6417685100803183,1.341434479580185,0.3498329847499333,0.4949025383422565,1.1521748049436595,0.7564096559337931,0.025773010370067687,0.7244133671325441,0.788405944735042,0.03199628880124894,0.738445710667933,0.8011312623058572,174.3474768517539,28.843378662292544,138.53943345941852,210.15552024408927,35.808043392335385,147.1495301220566,213.22689281683412,11295.0,0.0,11295.0,11295.0,0.0,11295.0,11295.0,0.0,0.0,0.0,0.0,0.0,0.0,0.0,0.6548229548229549,0.08722187631249717,0.5465400532833415,0.7631058563625683,0.7555555555555555,0.12171612389003689,0.6044492549785311,0.90666185613258,0.6926767676767677,0.059942176163499436,0.6182606574760705,0.7670928778774648,9.0,0.0,9.0,9.0,0.6784615384615386,0.06115935576965394,0.602534342452769,0.7543887344703081,0.6333333333333334,0.11180339887498948,0.49453333333333344,0.7721333333333333,0.6522251082251083,0.08012351201793931,0.5527545770964005,0.751695639353816,12.0,0.0,12.0,12.0,0.851190476190476,0.11919633568155232,0.7032124043333022,0.9991685480476499,0.75,0.08838834764831845,0.6402689651921573,0.8597310348078427,0.7900226244343893,0.06109856163227822,0.7141709022157967,0.8658743466529819,8.0,0.0,8.0,8.0,0.6333333333333334,0.6522251082251083,0.5944444444444446,0.6332251082251081
4,inceptiontime,inception_time,0,50,10,5.0,2.5,50.0,0.9,model=inceptiontime|resolved_model=inception_time|extra_input=0|cnn_epochs=50|cnn_patience=10|window_sec=5|hop_sec=2p5|overlap_pct=50|max_windows_fraction=0p9,5,5,5,0,0,True,0.711111111111111,0.044598498439971455,0.6557436388718318,0.7664785833503902,0.05536747223927918,0.6435185185185185,0.75,0.7023916335165046,0.05908360140246424,0.6290414137809527,0.7757418532520565,0.07335021973555192,0.626984126984127,0.7679219836082581,0.6692592592592592,0.021067612756794026,0.6431045566288622,0.6954139618896562,0.02615470263039698,0.6453703703703704,0.6999999999999998,0.6624705225830063,0.035456604799054485,0.6184523907942626,0.70648865437175,0.04401813178874366,0.628864158275923,0.7132709248866869,0.6110942264693888,0.009235291450720901,0.5996289359124055,0.6225595170263721,0.01146529055698336,0.6015843938721694,0.6226945133813259,0.6060020172173227,0.020368655298245504,0.5807150457670396,0.6312889886676059,0.025286971450283125,0.5857359087608374,0.6310054429385468,1.052444169751904,0.3197810270612606,0.6554472358238778,1.4494411036799302,0.39699693392802626,0.5680776801482762,1.3786157193553492,0.7441326130168604,0.03689190156775211,0.6983326106096932,0.7899326154240276,0.045800002407167195,0.7178140972130692,0.8080744694634557,233.71049707308413,39.652112837407955,184.48378914458831,282.9372050015799,49.226707928495806,170.52913539484143,266.8128479477018,15657.0,0.0,15657.0,15657.0,0.0,15657.0,15657.0,0.0,0.0,0.0,0.0,0.0,0.0,0.0,0.6445454545454545,0.07764024308429981,0.5481578147372026,0.7409330943537065,0.7999999999999999,0.09296222517045283,0.6845906566035059,0.9154093433964939,0.706890756302521,0.03442564495262679,0.6641525250188073,0.7496289875862346,9.0,0.0,9.0,9.0,0.6900793650793651,0.058327934098470494,0.6176672798088629,0.7624914503498672,0.5833333333333333,0.1767766952966369,0.3638712637176478,0.8027954029490187,0.6200779727095516,0.10260431634853404,0.4926983111565042,0.7474576342625989,12.0,0.0,12.0,12.0,0.8494949494949495,0.1550266490383179,0.6570347997764417,1.0419550992134572,0.75,0.125,0.5948168823615146,0.9051831176384854,0.7802061715374409,0.05946125864722,0.7063871035727692,0.8540252395021125,8.0,0.0,8.0,8.0,0.5833333333333333,0.6200779727095516,0.5416666666666667,0.6131062951496388
5,inceptiontime,inception_time,0,50,20,10.0,7.0,30.000000000000004,0.9,model=inceptiontime|resolved_model=inception_time|extra_input=0|cnn_epochs=50|cnn_patience=20|window_sec=10|hop_sec=7|overlap_pct=30|max_windows_fraction=0p9,5,5,5,0,0,True,0.7083333333333334,0.06288461901484318,0.6302642834914794,0.7864023831751873,0.07806904984185396,0.6018518518518519,0.7546296296296297,0.6883175255170141,0.054851598764171644,0.6202211886875785,0.7564138623464497,0.06809633682943558,0.5980392156862746,0.734090909090909,0.6814814814814814,0.026238198732045883,0.6489076776378251,0.7140552853251376,0.032573803843656275,0.6398148148148147,0.7064814814814815,0.6686140950648833,0.024803573532723312,0.637821328109816,0.6994068620199507,0.030792766955067392,0.6317044362664115,0.6970441119887739,0.6363045758731966,0.024497620656448896,0.6058916386876549,0.6667175130587382,0.03041293718554159,0.5963608294519496,0.6632371766035933,0.6262715342535374,0.025170292428362925,0.5950234986462917,0.6575195698607832,0.03124803560724577,0.5868709996279987,0.6552248585383521,0.9375746723713905,0.25803444961882277,0.6172339495715536,1.2579153951712274,0.32034072279983683,0.5484243494605547,1.1507717211153676,0.7763949443772582,0.03334326909552866,0.7350004447732335,0.817789443981283,0.04139449960402479,0.7521367521367521,0.8340720697504618,222.0872163206339,13.071632162848847,205.85924326739885,238.31518937386895,16.227973053235054,202.2838094495237,236.2634591106325,5653.0,0.0,5653.0,5653.0,0.0,5653.0,5653.0,0.0,0.0,0.0,0.0,0.0,0.0,0.0,0.6433150183150182,0.023485931507751183,0.6141580577388841,0.6724719788911524,0.8,0.18257418583505536,0.5733405491344633,1.0266594508655367,0.7053376291227953,0.07883559945473352,0.6074659962885198,0.8032092619570708,9.0,0.0,9.0,9.0,0.693939393939394,0.1290772150938422,0.5336945567045476,0.8541842311742404,0.5,0.05892556509887897,0.4268459767947715,0.5731540232052286,0.5728502415458937,0.04573121496342353,0.5160765414545352,0.6296239416372522,12.0,0.0,12.0,12.0,0.7527777777777777,0.08806037491192979,0.6434539096238007,0.8621016459317546,0.825,0.06846531968814577,0.7400027059254237,0.9099972940745762,0.7867647058823529,0.07676695962434225,0.6914612168732877,0.8820681948914182,8.0,0.0,8.0,8.0,0.5,0.5728502415458937,0.5,0.5728502415458937
6,cnn,cnn1d,PPI,50,20,10.0,5.0,50.0,0.9,model=cnn|resolved_model=cnn1d|extra_input=PPI|cnn_epochs=50|cnn_patience=20|window_sec=10|hop_sec=5|overlap_pct=50|max_windows_fraction=0p9,5,5,5,0,0,True,0.7055555555555555,0.09193050321370391,0.5914270587973365,0.8196840523137745,0.11412849675821898,0.5787037037037037,0.8379629629629629,0.6929885640500798,0.10051876156676741,0.5681980456413556,0.817779082458804,0.12479051840872425,0.5477582846003898,0.8316756654352563,0.6570370370370371,0.06399816205351297,0.5775855625522599,0.7364885115218143,0.07945147448477724,0.5888888888888889,0.762962962962963,0.6440451118749091,0.06996145278006921,0.5571904210194785,0.7308998027303397,0.08685469085543057,0.5558987558987559,0.7505582137161083,0.6256623400638947,0.03744167508128236,0.5791798131141299,0.6721448670136594,0.0464825269497647,0.5773095669210884,0.6821016033410152,0.6141651660823819,0.04648007712956729,0.5564617798660338,0.67186855229873,0.057703386216348115,0.5460701667491951,0.6751657216058794,1.1681086270289922,0.39102873118781084,0.6826601662934264,1.653557087764558,0.4854484607355658,0.6531777861114773,1.6021521990027294,0.7675355762920287,0.051297178472833015,0.7038519276402525,0.831219224943805,0.06368364865177621,0.7117830622750673,0.8323329076202639,109.27560538519174,6.145348397716891,101.64637079853271,116.90483997185076,7.629234586659023,98.71544279623777,114.12684339657426,7825.0,0.0,7825.0,7825.0,0.0,7825.0,7825.0,18.0,0.0,18.0,18.0,0.0,18.0,18.0,0.7005050505050504,0.1174663224264619,0.5546747294517232,0.8463353715583776,0.7999999999999999,0.09296222517045283,0.6845906566035059,0.9154093433964939,0.7444444444444445,0.09749960430435692,0.6234021039286941,0.8654867849601948,9.0,0.0,9.0,9.0,0.68988788988789,0.10524559097633386,0.5592291784845913,0.8205466012911886,0.5666666666666667,0.16029486718059455,0.3676662088224139,0.7656671245109195,0.6163513130652719,0.1331277959076093,0.45107782175900946,0.7816248043715344,12.0,0.0,12.0,12.0,0.6936507936507936,0.13487394149998733,0.5262095238095238,0.8610920634920635,0.75,0.08838834764831845,0.6402689651921573,0.8597310348078427,0.7181699346405228,0.10552509728714209,0.5871642259515373,0.8491756433295083,8.0,0.0,8.0,8.0,0.5666666666666667,0.6163513130652719,0.5666666666666667,0.6163513130652719
7,cnn,cnn1d,0,50,20,5.0,2.5,50.0,0.9,model=cnn|resolved_model=cnn1d|extra_input=0|cnn_epochs=50|cnn_patience=20|window_sec=5|hop_sec=2p5|overlap_pct=50|max_windows_fraction=0p9,5,5,5,0,0,True,0.7027777777777777,0.04528998926442818,0.6465518439228377,0.7590037116327177,0.05622593385493999,0.6620370370370371,0.7731481481481483,0.7075264306743645,0.04836008114678934,0.6474890853814932,0.7675637759672358,0.06003734529287127,0.6604148905939188,0.7763285024154589,0.6507407407407407,0.04109379849014227,0.5997242306182771,0.7017572508632044,0.051016510122463686,0.6194444444444445,0.7212962962962962,0.6544997479782612,0.04373545912001587,0.6002037087975044,0.7087957871590179,0.05429603918075673,0.6105057994499871,0.7219665683382498,0.5845221730923315,0.029564485166778325,0.5478189012558721,0.6212254449287908,0.03670327183645934,0.5605041301221979,0.6347651852802962,0.5849604276754343,0.03299722352517423,0.5439955315150302,0.6259253238358384,0.04096489616040408,0.5504640656547551,0.6352274071145835,1.1435544278353864,0.2868952289324852,0.787384059344586,1.4997247963261868,0.35617036849080036,0.7596677263917059,1.365238714490256,0.7144452510607381,0.06824285928867128,0.6297241337728943,0.7991663683485819,0.08472111728784384,0.6146340893233493,0.7896359216393628,173.17075051683932,22.295736358669068,145.49137549136734,200.8501255423113,27.679375025471984,146.78444846905768,205.5213418034837,15657.0,0.0,15657.0,15657.0,0.0,15657.0,15657.0,0.0,0.0,0.0,0.0,0.0,0.0,0.0,0.6778787878787877,0.04812365462086138,0.618134957829004,0.7376226179285715,0.7333333333333333,0.060858061945018485,0.657780183044821,0.8088864836218456,0.7018782249742002,0.024926969642280722,0.6709322660752481,0.7328241838731522,9.0,0.0,9.0,9.0,0.641042291042291,0.05350119566236825,0.5746224323201077,0.7074621497644744,0.65,0.06972166887783961,0.5634429924526295,0.7365570075473705,0.6439977703455965,0.049860860404356576,0.5820972602201135,0.7058982804710794,12.0,0.0,12.0,12.0,0.858095238095238,0.16393682760963754,0.6545734140614261,1.06161706212905,0.725,0.10458250331675945,0.5951644886789442,0.8548355113210557,0.7767032967032967,0.10140951381739637,0.6508069406042036,0.9025996528023899,8.0,0.0,8.0,8.0,0.65,0.6439977703455965,0.625,0.6439977703455965
8,inceptiontime,inception_time,0,50,20,15.0,7.5,50.0,0.9,model=inceptiontime|resolved_model=inception_time|extra_input=0|cnn_epochs=50|cnn_patience=20|window_sec=15|hop_sec=7p5|overlap_pct=50|max_windows_fraction=0p9,5,5,5,0,0,True,0.700925925925926,0.07010488419061814,0.6138931700028453,0.7879586818490066,0.08703275592308071,0.5879629629629629,0.7731481481481483,0.7043075872542828,0.06589980838143017,0.6224952855230098,0.7861198889855557,0.08181230173127299,0.5977878330819507,0.7763285024154589,0.6703703703703704,0.05774245121358837,0.5986851415750681,0.7420555991656727,0.0716852287953023,0.6037037037037037,0.7583333333333333,0.6701911178175378,0.054879411625865536,0.6020602522953974,0.7383219833396782,0.06813086552214043,0.6024358302977733,0.7545100408776099,0.6278151656130235,0.04661146342485294,0.5699486679173362,0.6856816633087108,0.05786649769568731,0.5637487180885947,0.6875358136031271,0.6275551342798272,0.04457054390568563,0.572222366614809,0.6828879019448455,0.05533276766501832,0.5620681835294504,0.6837870782495123,0.9233718464439921,0.30393528573369794,0.5460468448399991,1.300696848047985,0.37732500160399296,0.4787310946421177,1.244140145897122,0.7815027382180798,0.04596037412079988,0.7244445450669047,0.8385609313692549,0.0570581931511751,0.7331395348837209,0.8551328502415458,393.17449113372714,154.14647747953848,201.80704354760428,584.54193871985,191.36744758612286,269.2858806354925,564.684506858699,5215.0,0.0,5215.0,5215.0,0.0,5215.0,5215.0,0.0,0.0,0.0,0.0,0.0,0.0,0.0,0.6256060606060606,0.027898955156174646,0.5909704858861288,0.6602416353259924,0.711111111111111,0.12668615834434865,0.5538346870029602,0.8683875352192618,0.6626595901518503,0.06840120407518734,0.5777418933629396,0.747577286940761,9.0,0.0,9.0,9.0,0.6358041958041958,0.08852633133936955,0.5259018590814685,0.7457065325269231,0.6166666666666666,0.0456435464587638,0.5600018039502824,0.6733315293830507,0.6238346001824262,0.057214089632379256,0.5528053137664234,0.694863886598429,12.0,0.0,12.0,12.0,0.8892857142857142,0.11871978670424757,0.7418992612765851,1.0366721672948433,0.775,0.10458250331675945,0.6451644886789443,0.9048355113210558,0.8264285714285714,0.10118487379449193,0.7008110980422839,0.9520460448148589,8.0,0.0,8.0,8.0,0.6166666666666666,0.6238346001824262,0.611111111111111,0.6221503896561105
9,inceptiontime,inception_time,PPI,50,20,5.0,3.5,30.000000000000004,0.9,model=inceptiontime|resolved_model=inception_time|extra_input=PPI|cnn_epochs=50|cnn_patience=20|window_sec=5|hop_sec=3p5|overlap_pct=30|max_windows_fraction=0p9,5,5,5,0,0,True,0.6962962962962963,0.08824273247917327,0.5867460376158408,0.8058465549767518,0.10955025868045554,0.5740740740740741,0.8101851851851851,0.6833588650771313,0.08832190577092129,0.5737103155306985,0.793007414623564,0.1096485495464328,0.5606909430438842,0.7951447245564892,0.6629629629629629,0.0619298410511445,0.5860792364895832,0.7398466894363426,0.07688372647337967,0.5851851851851851,0.7453703703703702,0.6566159137483806,0.05825153594895272,0.5842986741020703,0.7289331533946909,0.07231723964631032,0.5838110744205957,0.736864752242051,0.6295434684967578,0.05394922743282686,0.5625673940390477,0.6965195429544679,0.06697607445771019,0.56335142851406,0.7021007682660899,0.6231559292972882,0.05084176908965888,0.5600376554285743,0.6862742031660022,0.06311827386871395,0.5610014064754699,0.6942817726843257,0.9154886070057391,0.45902461086969065,0.3456256455053296,1.4853515685061485,0.5698629615004095,0.4465649165271481,1.60850150086442,0.8056650489256405,0.06313880783194971,0.727280432578927,0.884049665272354,0.0783846163467134,0.7117067785865739,0.8678185120385492,346.08511600811033,53.6568718781789,279.4719907218337,412.69824129438695,66.6131252862766,264.176336331293,394.11959961336106,11295.0,0.0,11295.0,11295.0,0.0,11295.0,11295.0,18.0,0.0,18.0,18.0,0.0,18.0,18.0,0.6007226107226107,0.11337715940153331,0.45996884220320705,0.7414763792420143,0.7555555555555555,0.12171612389003689,0.6044492549785311,0.90666185613258,0.6679744816586922,0.11334666898837942,0.527258565918259,0.8086903973991254,9.0,0.0,9.0,9.0,0.7144444444444444,0.13606008113701953,0.5455306238285407,0.8833582650603482,0.5333333333333334,0.09501461875826149,0.41537601525222034,0.6512906514144465,0.61004329004329,0.110065052122512,0.4734013865919796,0.7466851934946005,12.0,0.0,12.0,12.0,0.7472222222222222,0.08695819912499184,0.6392666666666666,0.8551777777777778,0.8,0.06846531968814577,0.7150027059254238,0.8849972940745763,0.7720588235294118,0.0749855810822468,0.6789668535271999,0.8651507935316237,8.0,0.0,8.0,8.0,0.5333333333333334,0.61004329004329,0.5333333333333334,0.61004329004329
10,cnn,cnn1d,PPI,50,20,15.0,7.5,50.0,0.9,model=cnn|resolved_model=cnn1d|extra_input=PPI|cnn_epochs=50|cnn_patience=20|window_sec=15|hop_sec=7p5|overlap_pct=50|max_windows_fraction=0p9,5,5,5,0,0,True,0.6935185185185185,0.035621081595687686,0.649296194553129,0.737740842483908,0.04422232396538951,0.6666666666666666,0.7546296296296297,0.6818658729185044,0.025022359194050846,0.6508014912352817,0.7129302546017271,0.03106438168322263,0.6651515151515152,0.7259259259259259,0.6335185185185186,0.04903212742570184,0.5726468513315754,0.6943901857054617,0.060871667186943146,0.5870370370370371,0.7148148148148149,0.6257203575215965,0.048723410241936625,0.5652319518950154,0.6862087631481776,0.060488405626581074,0.5852678236045376,0.702349571919092,0.6056891849131909,0.036586061924888176,0.5602688717002402,0.6511094981261416,0.04542031321295066,0.5657423194301492,0.6640361942410897,0.5978480904587714,0.035128898968357546,0.5542367939698346,0.6414593869477082,0.043611296488936774,0.5655702217196574,0.6499231098243736,1.158240278566945,0.6186469341418981,0.3902117989059011,1.926268758227989,0.7680284796610439,0.3773438875594044,1.9448579333805376,0.7770574235370412,0.06572012896443902,0.6954681875026014,0.858646659571481,0.08158923603443977,0.7072301570150336,0.8798711755233494,79.24939004722982,4.278938515747972,73.93723789477252,84.56154219968712,5.312152152457308,71.80990781169385,82.71522948518395,5215.0,0.0,5215.0,5215.0,0.0,5215.0,5215.0,18.0,0.0,18.0,18.0,0.0,18.0,18.0,0.6204195804195803,0.06932324120197164,0.5343572068633671,0.7064819539757936,0.8222222222222222,0.12668615834434868,0.6649457981140714,0.979498646330373,0.7035885167464115,0.07274379691402635,0.613279643194576,0.7938973902982471,9.0,0.0,9.0,9.0,0.6755555555555556,0.08701142255084092,0.5675339249827627,0.7835771861283485,0.5333333333333334,0.04564354645876387,0.4766684706169492,0.5899981960497176,0.5933766233766233,0.04553682513891712,0.5368442514372976,0.649908995315949,12.0,0.0,12.0,12.0,0.7928571428571429,0.06851187890446742,0.7078020471478179,0.8779122385664679,0.725,0.13693063937629152,0.5550054118508474,0.8949945881491526,0.7486324786324786,0.07727152797112011,0.6527025857104959,0.8445623715544613,8.0,0.0,8.0,8.0,0.5333333333333334,0.5933766233766233,0.5166666666666667,0.5831202131202131
11,inceptiontime,inception_time,PPI,50,20,5.0,2.5,50.0,0.9,model=inceptiontime|resolved_model=inception_time|extra_input=PPI|cnn_epochs=50|cnn_patience=20|window_sec=5|hop_sec=2p5|overlap_pct=50|max_windows_fraction=0p9,5,5,5,0,0,True,0.6925925925925925,0.07826676095927469,0.5954271528075818,0.7897580323776032,0.09716543978501072,0.5925925925925926,0.7824074074074074,0.6870956680507091,0.06914951759473428,0.6012489662623237,0.7729423698390945,0.08584670178838533,0.6030165912518853,0.7633986928104575,0.6596296296296297,0.060144573192427844,0.5849622506133335,0.7342970086459258,0.07466737901629619,0.5694444444444445,0.737037037037037,0.6554681503316142,0.055831232249929544,0.5861556328744749,0.7247806677887535,0.06931251745713932,0.5728497694043764,0.7289406580329386,0.6343689175052191,0.05781189801138921,0.5625974729451748,0.7061403620652633,0.07177144456004425,0.555476110689021,0.7072760242611921,0.6308847957090721,0.054765473019868234,0.562895380971716,0.6988742104464282,0.06798941473735608,0.556954169980092,0.699671604604322,0.9437082707427962,0.374649177312813,0.47859445189402794,1.4088220895915644,0.46511381884876823,0.6076804619800535,1.4987488378035576,0.792609739491331,0.04673238897825607,0.7345931169606096,0.8506263620220523,0.058016622530721366,0.7322575552625331,0.8306880532816416,464.19790873732416,35.214634531710736,420.48017455227824,507.91564292237007,43.7177341850459,410.3571554664522,508.4806390563026,15657.0,0.0,15657.0,15657.0,0.0,15657.0,15657.0,18.0,0.0,18.0,18.0,0.0,18.0,18.0,0.6221212121212122,0.09223527627304191,0.5076143502948309,0.7366280739475934,0.711111111111111,0.16850834320114558,0.5019139107427139,0.9203083114795082,0.6611351909184726,0.12472698498650493,0.5062910118476375,0.8159793699893078,9.0,0.0,9.0,9.0,0.6474747474747474,0.12868385579144312,0.48771825202308816,0.8072312429264067,0.5666666666666668,0.03726779962499652,0.5204000000000001,0.6129333333333334,0.6004459308807134,0.06869362222486775,0.5151652072108308,0.685726654550596,12.0,0.0,12.0,12.0,0.8019841269841269,0.10678769765695989,0.6694109442013828,0.934557309766871,0.8,0.11180339887498948,0.6612,0.9388000000000001,0.7997058823529412,0.10299053438549768,0.6718467446473799,0.9275650200585024,8.0,0.0,8.0,8.0,0.5666666666666668,0.6004459308807134,0.538888888888889,0.5868712702472293
12,inceptiontime,inception_time,0,50,20,10.0,5.0,50.0,0.9,model=inceptiontime|resolved_model=inception_time|extra_input=0|cnn_epochs=50|cnn_patience=20|window_sec=10|hop_sec=5|overlap_pct=50|max_windows_fraction=0p9,5,5,5,0,0,True,0.6916666666666667,0.04693996983569098,0.6333923397789948,0.7499409935543385,0.05827432688767191,0.625,0.736111111111111,0.6831475089126187,0.03687917829242814,0.6373633020057022,0.7289317158195351,0.045784206906916425,0.6352882205513785,0.7307692307692308,0.6827777777777778,0.015938302684270315,0.6629909337744906,0.702564621781065,0.019786844003287264,0.6583333333333333,0.6981481481481481,0.6763529349188038,0.020162501583807106,0.651321896077475,0.7013839737601325,0.025031038841328686,0.6543419091932002,0.7004375462699123,0.6411060723820793,0.015756419037340843,0.6215450305498158,0.6606671142143428,0.019561041832263478,0.6267578735878258,0.6662023386141714,0.635307266342189,0.023234964413294496,0.6064618726151946,0.6641526600691835,0.028845393726994413,0.6031686395598144,0.6651897587661805,1.0115442929956777,0.3860798528522611,0.5322396912115053,1.4908488947798502,0.4793046017841725,0.4352836078758038,1.5148049135458723,0.7711074051712977,0.06084208781358727,0.695574086206922,0.8466407241356735,0.07553331896437578,0.7073322399890666,0.8669254554009544,273.2869978848845,31.300897556650643,234.42803094309332,312.14596482667565,38.858966941791174,241.3534368891269,314.0592766264453,7825.0,0.0,7825.0,7825.0,0.0,7825.0,7825.0,0.0,0.0,0.0,0.0,0.0,0.0,0.0,0.6195238095238096,0.05346285293538805,0.5531515519529187,0.6858960670947005,0.7333333333333333,0.16850834320114558,0.5241361329649361,0.9425305337017305,0.6609649122807018,0.052393467224624395,0.5959202595782456,0.7260095649831579,9.0,0.0,9.0,9.0,0.6508091908091908,0.09402190660711474,0.5340842900603382,0.7675340915580433,0.5666666666666667,0.14907119849998599,0.3816,0.7517333333333334,0.5880574463899272,0.08109596275905832,0.48737965175916576,0.6887352410206886,12.0,0.0,12.0,12.0,0.8388888888888889,0.04001350080802203,0.7892135304647376,0.8885642473130402,0.775,0.13693063937629152,0.6050054118508474,0.9449945881491526,0.8004201680672269,0.08138892440466008,0.6993786718243616,0.9014616643100922,8.0,0.0,8.0,8.0,0.5666666666666667,0.5880574463899272,0.5277777777777778,0.5745959079283888
13,cnn,cnn1d,PPI,50,20,5.0,2.5,50.0,0.9,model=cnn|resolved_model=cnn1d|extra_input=PPI|cnn_epochs=50|cnn_patience=20|window_sec=5|hop_sec=2p5|overlap_pct=50|max_windows_fraction=0p9,5,5,5,0,0,True,0.6907407407407408,0.057115446345522757,0.6198339165070459,0.7616475649744356,0.07090682423369486,0.6342592592592592,0.7685185185185185,0.6816547462199636,0.05811506651259906,0.609506928594419,0.7538025638455081,0.07214781762554451,0.6234848484848484,0.7590909090909091,0.6685185185185185,0.06333292722416904,0.5898929097519756,0.7471441272850614,0.07862560876654287,0.5787037037037037,0.7546296296296297,0.6577494052598876,0.06331913044562196,0.5791409247102112,0.736357885809564,0.07860848054967644,0.5641935650216734,0.7394374809156297,0.6319676733441929,0.05758686522708231,0.5604755990964656,0.7034597475919202,0.07149207424772734,0.5594199942288037,0.7090674487932124,0.6237820139005099,0.057030295634216736,0.5529809012896119,0.694583126511408,0.07080111261089805,0.5500573431551031,0.6980888278708508,1.0646790838324123,0.43753809873858585,0.5214908738494587,1.607867293815366,0.5431882099829536,0.5356624730338696,1.644621561835229,0.772070968775353,0.0538712724273019,0.7051916727239859,0.8389502648267201,0.06687929605136708,0.7148626911119988,0.8255520990300868,222.46963757053018,17.574196019759775,200.6518893438407,244.28738579721966,21.81774822668946,199.94008981529623,244.34078741353005,15657.0,0.0,15657.0,15657.0,0.0,15657.0,15657.0,18.0,0.0,18.0,18.0,0.0,18.0,18.0,0.6369463869463869,0.07494861250147275,0.5439003121411286,0.7299924617516453,0.8222222222222222,0.12668615834434868,0.6649457981140714,0.979498646330373,0.716969696969697,0.09170359887111132,0.6031228939977918,0.8308164999416022,9.0,0.0,9.0,9.0,0.6606060606060605,0.0827666683863495,0.5578541435121055,0.7633579777000156,0.55,0.07453559924999298,0.45746666666666674,0.6425333333333334,0.5996612083568605,0.07589487355716648,0.5054403836258227,0.6938820330878984,12.0,0.0,12.0,12.0,0.7607142857142858,0.14151151968684964,0.585032695260164,0.9363958761684076,0.7,0.11180339887498948,0.5611999999999999,0.8388,0.7283333333333333,0.12326574724733733,0.5753032296862984,0.8813634369803681,8.0,0.0,8.0,8.0,0.55,0.5996612083568605,0.55,0.597922077922078
14,cnn,cnn1d,PPI,50,20,5.0,3.5,30.000000000000004,0.9,model=cnn|resolved_model=cnn1d|extra_input=PPI|cnn_epochs=50|cnn_patience=20|window_sec=5|hop_sec=3p5|overlap_pct=30|max_windows_fraction=0p9,5,5,5,0,0,True,0.6907407407407408,0.051490973012589925,0.6268165029620782,0.7546649785194033,0.06392423777866256,0.6481481481481481,0.7685185185185185,0.6757660044347351,0.05438757433803952,0.6082457376621603,0.74328627120731,0.06752026677257485,0.622853926259499,0.7590909090909091,0.6681481481481482,0.04477883465345891,0.6125567948222121,0.7237395014740842,0.055591353325936,0.6148148148148148,0.7388888888888889,0.6594803689327012,0.04934349025066579,0.598222155714601,0.7207385821508014,0.0612582132181002,0.6051051051051051,0.7382397519568693,0.637082061530582,0.03833357489452618,0.5894922722316944,0.6846718508294696,0.04758978929888757,0.5932008473216592,0.6973943300795832,0.6302781984488863,0.0426620232259998,0.5773147922970774,0.6832416046006953,0.05296340615180899,0.5840114443658728,0.69754231600555,1.1093404106331948,0.6127782092362484,0.3485977471915216,1.870083074074868,0.7607426634416732,0.3717988637600662,1.7220654216375888,0.7873049742067392,0.07027108668342305,0.7000658837157164,0.8745440646977619,0.08723909049102276,0.7127083562439763,0.8832959412815912,156.0129978628829,25.060018942235946,124.90186292259753,187.1241328031683,31.111134940285385,116.6386112542823,176.27422643825412,11295.0,0.0,11295.0,11295.0,0.0,11295.0,11295.0,18.0,0.0,18.0,18.0,0.0,18.0,18.0,0.598904428904429,0.07621074787255978,0.5042914572850338,0.6935174005238242,0.7555555555555554,0.09296222517045284,0.6401462121590614,0.8709648989520494,0.6669218500797449,0.07805657935185467,0.5700173433916118,0.763826356767878,9.0,0.0,9.0,9.0,0.7020634920634922,0.1316738184190087,0.5385950628344874,0.8655319212924969,0.5166666666666666,0.10865337342004412,0.3817773128325787,0.6515560205007545,0.5889382547277284,0.09697899879174572,0.46854222770403237,0.7093342817514245,12.0,0.0,12.0,12.0,0.7503174603174603,0.07364634633534942,0.658888103301435,0.8417468173334856,0.8,0.06846531968814577,0.7150027059254238,0.8849972940745763,0.771437908496732,0.04562517537273394,0.714795852839584,0.82807996415388,8.0,0.0,8.0,8.0,0.5166666666666666,0.5889382547277284,0.5166666666666666,0.5889382547277284
15,inceptiontime,inception_time,0,50,10,15.0,10.5,30.000000000000004,0.9,model=inceptiontime|resolved_model=inception_time|extra_input=0|cnn_epochs=50|cnn_patience=10|window_sec=15|hop_sec=10p5|overlap_pct=30|max_windows_fraction=0p9,5,5,5,0,0,True,0.6898148148148148,0.07224299321447798,0.6001276714983457,0.7795019581312839,0.08968714331646911,0.5879629629629629,0.7824074074074074,0.6814875541642266,0.07613368429061233,0.5869702542800553,0.7760048540483978,0.09451729988417121,0.5977878330819507,0.7897435897435897,0.6557407407407407,0.036461970718023116,0.6104744824106128,0.7010069990708687,0.04526625833012793,0.5944444444444444,0.6824074074074075,0.647242400184451,0.03902307806818593,0.5987966168686822,0.6956881835002198,0.04844578331576877,0.5880524704054116,0.6822313634328872,0.6151416520213219,0.030453375139673472,0.5773348544470108,0.6529484495956329,0.037806797574311,0.5651872627531965,0.641302637030093,0.6053648435108516,0.028570442478056714,0.5698956408224047,0.6408340461992985,0.03546920268844684,0.5587606664097552,0.634758988397934,0.9635068548162323,0.33439533506145014,0.5483667698674184,1.3786469397650463,0.415140084948814,0.3666479224761936,1.1462428352577083,0.7584230666452888,0.0520677313344394,0.6937828036305579,0.8230633296600197,0.06464026301473089,0.7024691358024692,0.8444668911335578,99.00686953496188,10.127966165870896,86.43335461530633,111.58038445461743,12.573514919655546,84.1743851993233,109.07528157159686,3908.0,0.0,3908.0,3908.0,0.0,3908.0,3908.0,0.0,0.0,0.0,0.0,0.0,0.0,0.0,0.6304545454545455,0.07258587896779929,0.5403417214965226,0.7205673694125684,0.7777777777777777,0.1571348402636772,0.582700382563835,0.9728551729917203,0.6896771340114993,0.08885844468970833,0.5793624902078525,0.7999917778151462,9.0,0.0,9.0,9.0,0.6477855477855476,0.09673800094467684,0.52768871113987,0.7678823844312253,0.5666666666666667,0.18066236157232335,0.34238067859687116,0.7909526547364621,0.5926060413016934,0.13096096831107626,0.43002259048995173,0.755189492113435,12.0,0.0,12.0,12.0,0.8178571428571428,0.11871978670424757,0.6704706898480137,0.965243595866272,0.725,0.10458250331675945,0.5951644886789442,0.8548355113210557,0.7621794871794871,0.07449424036439846,0.6696974994526227,0.8546614749063516,8.0,0.0,8.0,8.0,0.5666666666666667,0.5926060413016934,0.5194444444444445,0.5864521951478473
16,inceptiontime,inception_time,0,50,10,10.0,7.0,30.000000000000004,0.9,model=inceptiontime|resolved_model=inception_time|extra_input=0|cnn_epochs=50|cnn_patience=10|window_sec=10|hop_sec=7|overlap_pct=30|max_windows_fraction=0p9,5,5,5,0,0,True,0.6898148148148148,0.02096153967161438,0.6637917982008634,0.7158378314287661,0.026023016613951303,0.6620370370370371,0.7129629629629629,0.6755307764131293,0.01829083400551204,0.6528233472516622,0.6982382055745964,0.022707429161467074,0.6574157868275515,0.6995670995670995,0.6625925925925925,0.01858322030266977,0.6395221760939438,0.6856630090912412,0.02307041649864874,0.6342592592592593,0.6851851851851852,0.6523559935356305,0.01737438663577869,0.6307863016540579,0.673925685417203,0.02156969188157258,0.6345944030511856,0.6710831106020109,0.6141119716357833,0.016252312538077043,0.5939352954078326,0.6342886478637341,0.020176676227950725,0.5941787913401589,0.6361049781727964,0.6060128585296816,0.017931683127768352,0.5837513025915014,0.6282744144678617,0.022261555938180157,0.5826516462408101,0.6254834080659452,0.9305593535047766,0.31308074521502516,0.5418805845843933,1.31923812242516,0.3886787689203834,0.4105475126419387,1.2149197949004955,0.745680526941466,0.046917937281438955,0.6874335526974611,0.803927501185471,0.05824697424400496,0.69724611847374,0.8226044753682945,122.36814487557858,16.839392533081572,101.46262941620394,143.2736603349532,20.90551545937464,107.56907412596048,141.40967030916363,5653.0,0.0,5653.0,5653.0,0.0,5653.0,5653.0,0.0,0.0,0.0,0.0,0.0,0.0,0.0,0.6085780885780886,0.04337368389591814,0.5547311806546107,0.6624249965015665,0.7777777777777778,0.2222222222222222,0.5018966797538038,1.0536588758017518,0.6675757575757576,0.09553628054256758,0.5489708146783128,0.7861807004732024,9.0,0.0,9.0,9.0,0.6426190476190476,0.06946915660075961,0.5563755252108713,0.728862570027224,0.5166666666666667,0.09128709291752767,0.4033369412338984,0.629996392099435,0.5664535464535465,0.04582956688916341,0.5095577458944914,0.6233493470126016,12.0,0.0,12.0,12.0,0.8186507936507936,0.053047110842701625,0.7527946653125157,0.8845069219890715,0.775,0.10458250331675945,0.6451644886789443,0.9048355113210558,0.7925630252100839,0.06274756772850652,0.7146641197353507,0.8704619306848171,8.0,0.0,8.0,8.0,0.5166666666666667,0.5664535464535465,0.4722222222222222,0.55004329004329
17,inceptiontime,inception_time,PPI,50,10,5.0,2.5,50.0,0.9,model=inceptiontime|resolved_model=inception_time|extra_input=PPI|cnn_epochs=50|cnn_patience=10|window_sec=5|hop_sec=2p5|overlap_pct=50|max_windows_fraction=0p9,5,5,5,0,0,True,0.687037037037037,0.08076017010535465,0.5867761172133302,0.7872979568607438,0.10026091982370673,0.5648148148148148,0.7685185185185185,0.6814860273212676,0.07957194688930591,0.5827002449624958,0.7802718096800394,0.09878578235877176,0.5588235294117647,0.7652173913043478,0.6314814814814815,0.03106340036521527,0.5929173589764689,0.6700456039864942,0.038564122505012566,0.5944444444444444,0.6712962962962963,0.6278072655565701,0.028260941262380414,0.5927222977766157,0.6628922333365245,0.03508496777995444,0.5946885897265899,0.6653747833523114,0.6216370410949918,0.026941376042373812,0.5881902672731809,0.6550838149168028,0.03344677382181094,0.5829047013642022,0.6484124905300582,0.6185342992866054,0.024231874767287165,0.5884512763057017,0.6486173222675091,0.03008302298090376,0.5856937011133508,0.6445150369065002,1.062442515747213,0.3914602108379613,0.576458388153184,1.5484266433412421,0.48598412759402915,0.486245975411929,1.5072579591505766,0.7768332038971295,0.04883250628852805,0.7162093593534917,0.8374570484407673,0.060623844543637805,0.6953285370803847,0.8220313420702449,254.38236263878645,42.02383090964819,202.2112498734124,306.55347540416045,52.171112765374026,223.14679671637717,327.5278687495738,15657.0,0.0,15657.0,15657.0,0.0,15657.0,15657.0,18.0,0.0,18.0,18.0,0.0,18.0,18.0,0.6442424242424243,0.09624730924172276,0.5247547641428567,0.7637300843419919,0.711111111111111,0.18592445034090568,0.480292424318123,0.941929797904099,0.6737667698658409,0.136913656663089,0.5037932651597342,0.8437402745719477,9.0,0.0,9.0,9.0,0.646060606060606,0.08853983347640419,0.5361415069081201,0.7559797052130919,0.6,0.06972166887783961,0.5134429924526295,0.6865570075473705,0.6214756258234518,0.07530886188309355,0.5279823140408554,0.7149689376060483,12.0,0.0,12.0,12.0,0.7531746031746032,0.07145061388286207,0.6644711710183937,0.8418780353308126,0.75,0.08838834764831845,0.6402689651921573,0.8597310348078427,0.7492156862745097,0.06479643099896604,0.6687731888803774,0.8296581836686421,8.0,0.0,8.0,8.0,0.6,0.6214756258234518,0.5805555555555556,0.6085757290226264
18,cnn,cnn1d,0,50,20,5.0,3.5,30.000000000000004,0.9,model=cnn|resolved_model=cnn1d|extra_input=0|cnn_epochs=50|cnn_patience=20|window_sec=5|hop_sec=3p5|overlap_pct=30|max_windows_fraction=0p9,5,5,5,0,0,True,0.6833333333333333,0.05551696190341212,0.6144109714934253,0.7522556951732414,0.06892236183990812,0.6342592592592592,0.7685185185185185,0.6815913555043991,0.05663764877823513,0.6112777001994385,0.7519050108093597,0.07031365530496064,0.6262626262626262,0.7630591630591631,0.6312962962962962,0.03172157898636513,0.5919150681081394,0.6706775244844531,0.03938122818815684,0.6027777777777777,0.6851851851851851,0.6294428230063237,0.03088355221165967,0.5911019756786734,0.667783670333974,0.03834084732765031,0.5949862843427199,0.6793169793169792,0.5906305240641264,0.014381115300786347,0.5727768736041701,0.6084841745240828,0.0178536504599564,0.5723790602122713,0.6123378310954735,0.587997834454563,0.014025909708345862,0.5705851592845069,0.6054105096246191,0.017412675170056083,0.5711479914184604,0.606901889925263,1.134898520056723,0.20475454491380848,0.8807029310137303,1.3890941090997155,0.25419558904299266,0.9561203456365364,1.479665324030841,0.7038362997165977,0.03450781119200803,0.6609960619273495,0.7466765375058458,0.0428402377892482,0.6543565698297157,0.7406136117403723,112.68666212931275,11.16002722779582,98.83187958419484,126.54144467443066,13.85478254511791,102.3316933820024,130.1417877851054,11295.0,0.0,11295.0,11295.0,0.0,11295.0,11295.0,0.0,0.0,0.0,0.0,0.0,0.0,0.0,0.6439393939393938,0.0363320569947933,0.5988344189420245,0.6890443689367631,0.7999999999999999,0.09296222517045283,0.6845906566035059,0.9154093433964939,0.7114285714285713,0.048045707640493096,0.65178150982218,0.7710756330349626,9.0,0.0,9.0,9.0,0.6490909090909092,0.10115040760509911,0.5235162242704064,0.7746655939114119,0.6,0.10865337342004414,0.465110646165912,0.7348893538340879,0.6194993412384716,0.08538728590146143,0.5134940193754518,0.7255046631014914,12.0,0.0,12.0,12.0,0.8,0.12777531299998796,0.6413714285714287,0.9586285714285714,0.65,0.05590169943749474,0.5806,0.7194,0.7138461538461538,0.06551269506736952,0.6325144397225232,0.7951778679697844,8.0,0.0,8.0,8.0,0.6,0.6194993412384716,0.575,0.6194993412384716
19,inceptiontime,inception_time,HRV,50,20,5.0,3.5,30.000000000000004,0.9,model=inceptiontime|resolved_model=inception_time|extra_input=HRV|cnn_epochs=50|cnn_patience=20|window_sec=5|hop_sec=3p5|overlap_pct=30|max_windows_fraction=0p9,5,5,5,0,0,True,0.6777777777777778,0.06335999547082605,0.599118564731993,0.7564369908235626,0.0786592130457848,0.6018518518518519,0.7314814814814815,0.6898226358531685,0.059852356166666815,0.6155180340295494,0.7641272376767876,0.07430460182361906,0.6234288587229764,0.7362406015037594,0.6311111111111111,0.05174675195071245,0.5668693327480956,0.6953528894741265,0.06424177836301546,0.5759259259259258,0.6953703703703704,0.6351605109178545,0.04607485043494497,0.577960199436081,0.692360822399628,0.05720031148177347,0.5861243234377562,0.692706866542629,0.5943408791782477,0.04854417727499995,0.5340749849964093,0.6546067733600862,0.06026589418183845,0.5431330854050346,0.6473351666675218,0.5990849412505771,0.04446530850048989,0.5438828196516725,0.6542870628494817,0.05520212159890453,0.5525092934775523,0.6466632603965621,1.2715645656982544,0.4895546148659981,0.6637996745845457,1.8793294568119632,0.6077648911137087,0.4324772262460319,1.7044035560251227,0.7700676605077588,0.04105383230789611,0.7191007669993836,0.8210345540161339,0.050966893508375154,0.7267134951042996,0.8298867652574801,344.77606324702504,43.02676520908827,291.35984271066155,398.1922837833885,53.416220536363475,292.1245965138078,398.59696032013744,11295.0,0.0,11295.0,11295.0,0.0,11295.0,11295.0,40.0,0.0,40.0,40.0,0.0,40.0,40.0,0.6372727272727272,0.037503443368080334,0.5907135171604305,0.6838319373850239,0.6666666666666666,0.1111111111111111,0.5287261176546796,0.8046072156786537,0.6489783281733746,0.06709214772507531,0.5656857789490626,0.7322708773976867,9.0,0.0,9.0,9.0,0.6304244774833011,0.07526062367645871,0.5369910517430637,0.7238579032235385,0.7166666666666666,0.04564354645876387,0.6600018039502824,0.7733315293830507,0.668548187444739,0.05102676419374171,0.6052002486400296,0.7318961262494483,12.0,0.0,12.0,12.0,0.9142857142857143,0.12777531299998798,0.7556571428571428,1.0729142857142857,0.65,0.10458250331675945,0.5201644886789443,0.7798355113210558,0.751941391941392,0.08399324109337636,0.6476667278339433,0.8562160560488407,8.0,0.0,8.0,8.0,0.65,0.6489783281733746,0.6027777777777777,0.6349432404540764
20,inceptiontime,inception_time,PPI,50,20,10.0,7.0,30.000000000000004,0.9,model=inceptiontime|resolved_model=inception_time|extra_input=PPI|cnn_epochs=50|cnn_patience=20|window_sec=10|hop_sec=7|overlap_pct=30|max_windows_fraction=0p9,5,5,5,0,0,True,0.6777777777777778,0.06737662097120889,0.5941320649917078,0.7614234905638478,0.08364571278607001,0.6157407407407407,0.7824074074074074,0.6671507128150014,0.06649026007476502,0.5846053860070354,0.7496960396229674,0.08254532680796599,0.5847953216374268,0.7621832358674463,0.637962962962963,0.04371017685897099,0.5836983108229253,0.6922276151030006,0.054264652140037575,0.601851851851852,0.7138888888888889,0.6262396745053881,0.03890744774785043,0.5779374421784449,0.6745419068323313,0.048302232326943174,0.5908013276434328,0.6927362196105671,0.6166067219997371,0.03859299728665015,0.5686948688960892,0.664518575103385,0.047911853103647824,0.5882303195018518,0.6835496277029175,0.6064115387095587,0.03541740416182852,0.5624420731376001,0.6503810042815172,0.043969465571958535,0.5780532854796416,0.6663240242230323,0.8914899382027983,0.3701933810088073,0.4319078342501712,1.3510720421554254,0.4595821039526271,0.6096855855777948,1.455996364802606,0.7755134315817159,0.04554242553670391,0.7189741069448816,0.8320527562185502,0.056539324636834275,0.7247680343040225,0.8325988918953743,226.58404625914991,39.80648993648245,177.1656845744432,276.0024079438566,49.418361684706724,191.0853070700541,273.9677667291835,5653.0,0.0,5653.0,5653.0,0.0,5653.0,5653.0,18.0,0.0,18.0,18.0,0.0,18.0,18.0,0.6207575757575758,0.10711006756995024,0.4877841820297862,0.7537309694853656,0.7333333333333333,0.14907119849998596,0.5482666666666667,0.9183999999999999,0.6657172342621259,0.10320037151008468,0.537597591123047,0.7938368774012049,9.0,0.0,9.0,9.0,0.6471139971139971,0.08271510964409336,0.5444260883909606,0.7498019058370335,0.55,0.12638125740085918,0.3931020997237022,0.7068979002762978,0.5892829900839054,0.10085902313440769,0.4640700488681493,0.7144959312996615,12.0,0.0,12.0,12.0,0.7550793650793651,0.05329765435446086,0.688912195755016,0.8212465344037142,0.75,0.125,0.5948168823615146,0.9051831176384854,0.7464519140989729,0.05986482567722054,0.6721318318151687,0.8207719963827772,8.0,0.0,8.0,8.0,0.55,0.5892829900839054,0.5277777777777778,0.5735967155741015
21,inceptiontime,inception_time,0,50,10,15.0,7.5,50.0,0.9,model=inceptiontime|resolved_model=inception_time|extra_input=0|cnn_epochs=50|cnn_patience=10|window_sec=15|hop_sec=7p5|overlap_pct=50|max_windows_fraction=0p9,5,5,5,0,0,True,0.6749999999999999,0.08829129755300896,0.5653894494830151,0.7846105505169848,0.10961055051698486,0.5787037037037037,0.7777777777777778,0.6689743407706794,0.09261359589561176,0.5539978083963445,0.7839508731450143,0.11497653237433493,0.5491228070175439,0.7616161616161617,0.6522222222222223,0.04979209174707063,0.5904070859738069,0.7140373584706377,0.06181513624841535,0.5907407407407407,0.712037037037037,0.6480551470750753,0.050222212204006196,0.5857060313589211,0.7104042627912295,0.06234911571615416,0.5944148936170213,0.7001119150076449,0.6156487801812566,0.03796135065816024,0.568521094222048,0.6627764661404651,0.0471276859592086,0.5666003451764531,0.6568658816937594,0.6112029693410109,0.0378024846821821,0.5642725099213141,0.6581334287607078,0.046930459419696854,0.5724482994658763,0.6552935713381457,0.9651704346961691,0.37790451758239885,0.4960152250313334,1.4343256443610048,0.46915520966483576,0.3351649787817972,1.3525089625959044,0.7692152678681107,0.07407557721598032,0.6772530357621412,0.8611774999740801,0.09196223210596946,0.7148686775418077,0.8920893719806764,152.84740783777087,7.183820343148293,143.92894673853468,161.76586893700707,8.918461099236207,143.1135314134881,159.46521233115345,5215.0,0.0,5215.0,5215.0,0.0,5215.0,5215.0,0.0,0.0,0.0,0.0,0.0,0.0,0.0,0.5805250305250306,0.07016721248076263,0.49341489621489626,0.6676351648351648,0.6666666666666666,0.2222222222222222,0.3907855686426926,0.9425477646906406,0.613343965975545,0.130921841772723,0.4508090893894358,0.7758788425616541,9.0,0.0,9.0,9.0,0.6486291486291486,0.11318136537447376,0.5081184515300177,0.7891398457282794,0.5833333333333333,0.14433756729740643,0.4041433038488035,0.762523362817863,0.6042933420507791,0.11267713890668689,0.46440862443378433,0.7441780596677738,12.0,0.0,12.0,12.0,0.8297619047619047,0.15208304212067913,0.640956139832048,1.0185676696917614,0.775,0.10458250331675945,0.6451644886789443,0.9048355113210558,0.7892857142857144,0.08009879104287787,0.6898458733808553,0.8887255551905734,8.0,0.0,8.0,8.0,0.5833333333333333,0.6042933420507791,0.5166666666666666,0.5619883040935673
22,inceptiontime,inception_time,0,50,20,15.0,10.5,30.000000000000004,0.9,model=inceptiontime|resolved_model=inception_time|extra_input=0|cnn_epochs=50|cnn_patience=20|window_sec=15|hop_sec=10p5|overlap_pct=30|max_windows_fraction=0p9,5,5,5,0,0,True,0.6740740740740742,0.05213217874170093,0.6093538018626827,0.7387943462854656,0.06472027221139139,0.5879629629629629,0.7129629629629629,0.677513058261342,0.04019721763375266,0.6276096218389545,0.7274164946837295,0.04990343642238751,0.6097435897435898,0.7050915331807781,0.6701851851851851,0.039833113796595314,0.6207337709115512,0.719636599458819,0.04945141427363381,0.6129629629629629,0.7092592592592593,0.6739666317456188,0.03436263034718981,0.6313066308853328,0.7166266326059048,0.04266000086028596,0.6278543005815733,0.7161522545574751,0.6240662652676954,0.03374987054102559,0.5821669842240824,0.6659655463113083,0.041899281043613006,0.5660090272311424,0.6467914617993079,0.625998530747683,0.029225748233491913,0.5897157889381571,0.6622812725572088,0.036282741809525856,0.5763430186677457,0.6504050464862449,0.9502349341556716,0.27082201149024415,0.6140189016102172,1.2864509667011261,0.3362160325454544,0.4911942590233738,1.209983465949679,0.7642392175725509,0.04527806902713308,0.7080280822743025,0.8204503528707993,0.05621113529824843,0.7263080540858319,0.8388327721661054,193.12543551232665,16.14153965317834,173.08627993740305,213.16459108725024,20.03915557492361,167.00790839269757,209.07960078679025,3908.0,0.0,3908.0,3908.0,0.0,3908.0,3908.0,0.0,0.0,0.0,0.0,0.0,0.0,0.0,0.5647552447552447,0.06929360713958525,0.47872966084854673,0.6507808286619428,0.7555555555555554,0.14487116456005883,0.5757030837767716,0.9354080273343393,0.6444976076555023,0.093295300988374,0.5286747623083283,0.7603204530026764,9.0,0.0,9.0,9.0,0.6228438228438228,0.0489621477039296,0.5620590330280484,0.6836286126595972,0.5666666666666667,0.03726779962499651,0.5204,0.6129333333333333,0.5915031055900621,0.023886102432864147,0.5618493468399496,0.6211568643401747,12.0,0.0,12.0,12.0,0.9464285714285715,0.07362688617174395,0.8550233735234106,1.0378337693337325,0.7,0.11180339887498948,0.5611999999999999,0.8388,0.7965384615384615,0.045840280986777816,0.7396293598028426,0.8534475632740804,8.0,0.0,8.0,8.0,0.5666666666666667,0.5915031055900621,0.5611111111111111,0.5795031055900621
23,cnn,cnn1d,PPI,50,10,5.0,2.5,50.0,0.9,model=cnn|resolved_model=cnn1d|extra_input=PPI|cnn_epochs=50|cnn_patience=10|window_sec=5|hop_sec=2p5|overlap_pct=50|max_windows_fraction=0p9,5,5,5,0,0,True,0.6740740740740742,0.07928705379734341,0.5756419765009376,0.7725061716472107,0.09843209757313649,0.5925925925925926,0.8009259259259259,0.6677259373342291,0.08010057846105301,0.5682838774123706,0.7671679972560876,0.09944205992185853,0.5866114561766735,0.7990196078431372,0.6311111111111111,0.050420896499773514,0.5685153358074131,0.693706886414809,0.06259577530369799,0.5990740740740741,0.7185185185185184,0.6235502188708344,0.04807323146340476,0.563868987403253,0.6832314503384158,0.059681231467581426,0.5950101530879683,0.7084081818806486,0.6055506148409605,0.04372648048679393,0.5512657223185679,0.6598355073633532,0.054284892522392623,0.5680406992167101,0.6737817726218593,0.6016803096073932,0.0430836256799342,0.5481934987899396,0.6551671204248467,0.053486810817453594,0.5660073047544999,0.6719556253949458,1.0859107084559956,0.37838075404366883,0.6161642679208159,1.5556571489911752,0.4697464405351797,0.6641635270562001,1.5643412383185404,0.760031273690052,0.05514210607636436,0.6915742822173936,0.8284882651627103,0.06845699147265832,0.698836494359442,0.8111176779616495,118.89973348863423,19.2916639160367,94.94980908123866,142.8496578960298,23.949924407395574,96.05121807008982,143.5760633461177,15657.0,0.0,15657.0,15657.0,0.0,15657.0,15657.0,18.0,0.0,18.0,18.0,0.0,18.0,18.0,0.6680303030303031,0.12947942673158594,0.5072861341482923,0.8287744719123139,0.7555555555555555,0.049690399499995354,0.6938666666666666,0.8172444444444444,0.7054076367389059,0.08303877818038861,0.6023179048755192,0.8084973686022927,9.0,0.0,9.0,9.0,0.6263636363636363,0.07635822491648621,0.5315675771645882,0.7211596955626844,0.5666666666666667,0.10865337342004416,0.4317773128325787,0.7015560205007546,0.5942687747035573,0.09285278210422834,0.4789953010368284,0.7095422483702862,12.0,0.0,12.0,12.0,0.715079365079365,0.04959523746021588,0.6535086165265866,0.7766501136321433,0.7,0.14252192813739223,0.5230640228783303,0.8769359771216696,0.703501400560224,0.09404060555639278,0.5867532857214072,0.8202495153990409,8.0,0.0,8.0,8.0,0.5666666666666667,0.5942687747035573,0.5666666666666667,0.5925296442687747
24,inceptiontime,inception_time,PPI,50,20,10.0,5.0,50.0,0.9,model=inceptiontime|resolved_model=inception_time|extra_input=PPI|cnn_epochs=50|cnn_patience=20|window_sec=10|hop_sec=5|overlap_pct=50|max_windows_fraction=0p9,5,5,5,0,0,True,0.674074074074074,0.037123741105054536,0.6279862510093832,0.7201618971387649,0.04608782306469083,0.6157407407407408,0.7083333333333334,0.6729084328489812,0.03103610672200687,0.6343781944451269,0.7114386712528354,0.038530238403854236,0.6317045336653181,0.7050915331807781,0.645,0.05614502092336948,0.5752979249058683,0.7147020750941318,0.06970207509413176,0.5750000000000001,0.7138888888888889,0.6381864424095147,0.0544057188805683,0.570643649823518,0.7057292349955114,0.06754279258599676,0.5865775226190909,0.7129907060618671,0.6229618899874294,0.044518352632863196,0.5676939159578519,0.6782298640170069,0.05526797402957748,0.5655445536829949,0.6745625367671874,0.6165582339539374,0.04485936323527818,0.5608669072169157,0.6722495606909591,0.05569132673702176,0.5738939041333567,0.6752153491251901,1.1010053460739042,0.5030023411645621,0.47654557422291377,1.7254651179248945,0.6244597718509904,0.3196822483804029,1.5564631756431957,0.7670728652133022,0.07996353334001409,0.6678009420045634,0.866344788422041,0.09927192320873883,0.697179483064107,0.895752951984047,344.30707864053545,23.692753709560655,314.89335555181214,373.72080172925877,29.413723088723298,313.6648190189153,370.7506161080673,7825.0,0.0,7825.0,7825.0,0.0,7825.0,7825.0,18.0,0.0,18.0,18.0,0.0,18.0,18.0,0.6213636363636363,0.05621497991587428,0.5515747096329946,0.6911525630942781,0.6888888888888889,0.09296222517045284,0.5734795454923949,0.8042982322853829,0.6513312693498452,0.0645888998375827,0.5711464146167576,0.7315161240829328,9.0,0.0,9.0,9.0,0.6212121212121211,0.06090833709770236,0.5455965560841429,0.6968276863400993,0.5833333333333334,0.058925565098878946,0.5101793101281049,0.6564873565385618,0.59836041575172,0.03350439484821232,0.5567658841746289,0.6399549473288112,12.0,0.0,12.0,12.0,0.7964285714285715,0.08691291546878087,0.688529233944607,0.904327908912536,0.75,0.08838834764831845,0.6402689651921573,0.8597310348078427,0.7690336134453781,0.06988469929488884,0.6822742093509069,0.8557930175398494,8.0,0.0,8.0,8.0,0.5833333333333334,0.59836041575172,0.5611111111111111,0.5902162287840038
25,inceptiontime,inception_time,PPI,50,20,15.0,10.5,30.000000000000004,0.9,model=inceptiontime|resolved_model=inception_time|extra_input=PPI|cnn_epochs=50|cnn_patience=20|window_sec=15|hop_sec=10p5|overlap_pct=30|max_windows_fraction=0p9,5,5,5,0,0,True,0.6712962962962963,0.09945625490250386,0.5478248426609487,0.7947677499316439,0.12347145363534756,0.5509259259259259,0.8101851851851851,0.6676553511847628,0.09493546809088058,0.5497962958822684,0.7855144064872572,0.11785905530249435,0.5585721468074408,0.8075036075036075,0.6333333333333333,0.06405640946825172,0.5538095467252477,0.7128571199414189,0.07952378660808557,0.5685185185185185,0.7185185185185184,0.631500881011817,0.05924005942236572,0.5579564241298023,0.7050453378938317,0.07354445688201476,0.5735689535689535,0.7128966019231505,0.6169324255436703,0.046374512000653345,0.5593600947338724,0.6745047563534683,0.05757233080979792,0.5752507257571541,0.6857658758227597,0.6161039713278105,0.04228975500578656,0.5636027231200849,0.6686052195355361,0.052501248207725615,0.5752289056001462,0.6797457153030088,0.8890743593227363,0.3634430540788866,0.4378725495946221,1.3402761690508505,0.4512018097281142,0.3595554914194062,1.2136215598152205,0.7699781275285151,0.07256113192001987,0.6798960261627063,0.860060228894324,0.0900821013658088,0.6987654320987655,0.8791470258136925,195.25113812144846,22.770946504494514,166.9818063602754,223.5204698826215,28.26933176117304,176.0084084281698,224.0075574992225,3908.0,0.0,3908.0,3908.0,0.0,3908.0,3908.0,18.0,0.0,18.0,18.0,0.0,18.0,18.0,0.5862470862470862,0.09802689348864463,0.4645501346952173,0.7079440377989551,0.6888888888888889,0.16480441082434807,0.48428999071052026,0.8934877870672575,0.6289228418640184,0.11853011634210092,0.48177185795986155,0.7760738257681752,9.0,0.0,9.0,9.0,0.6211111111111112,0.11669311869436555,0.47624069538351543,0.7659815268387069,0.55,0.09501461875826149,0.43204268191888695,0.6679573180811131,0.5793373293373293,0.0925655201137549,0.464420481360686,0.6942541773139725,12.0,0.0,12.0,12.0,0.8198412698412698,0.11361964191314214,0.6787864677848721,0.9608960718976676,0.775,0.10458250331675945,0.6451644886789443,0.9048355113210558,0.7947058823529412,0.09806764293746963,0.6729583417889865,0.9164534229168958,8.0,0.0,8.0,8.0,0.55,0.5793373293373293,0.5222222222222221,0.5657626687038452
26,cnn,cnn1d,PPI,50,10,15.0,7.5,50.0,0.9,model=cnn|resolved_model=cnn1d|extra_input=PPI|cnn_epochs=50|cnn_patience=10|window_sec=15|hop_sec=7p5|overlap_pct=50|max_windows_fraction=0p9,5,5,5,0,0,True,0.6703703703703704,0.0652597164401525,0.5893527203432793,0.7513880203974614,0.08101765002709106,0.5740740740740741,0.7546296296296297,0.6607073260566328,0.05860546479512441,0.5879506961561536,0.7334639559571121,0.07275662990047924,0.5654068390641281,0.7259259259259259,0.6288888888888888,0.040047768116819496,0.5791709888022394,0.6786067889755383,0.049717900086649475,0.5944444444444444,0.6925925925925925,0.6174738447920742,0.038916825906457564,0.5691599698100082,0.6657877197741403,0.04831387498206608,0.5826003169190351,0.6744398014310616,0.6020792295436542,0.03290042474217368,0.5612345056786873,0.6429239534086212,0.04084472386496699,0.573161345043616,0.6553400771834786,0.5926733846864531,0.03149247760337074,0.5535765778332432,0.6317701915396631,0.03909680685320998,0.5680181810186614,0.6412584163521831,1.177406139627955,0.603641602121785,0.428006253599565,1.9268060256563448,0.7493998860283899,0.3773438875594044,1.9448579333805376,0.768131709272026,0.06677522530378197,0.6852326081228007,0.8510308104212513,0.0828991011492253,0.704644455067826,0.8798711755233494,48.16107631288469,4.4880287000420305,42.58934602709652,53.73280659867286,5.571730285788168,41.75964573491365,53.42956923600286,5215.0,0.0,5215.0,5215.0,0.0,5215.0,5215.0,18.0,0.0,18.0,18.0,0.0,18.0,18.0,0.6132323232323232,0.06628718133351216,0.530939111561907,0.6955255349027395,0.7777777777777778,0.17568209223157663,0.5596746194917939,0.9958809360637617,0.6807602339181286,0.09657368442122702,0.5608673904755587,0.8006530773606985,9.0,0.0,9.0,9.0,0.6404040404040404,0.13105306414531223,0.47770625584287274,0.8031018249652081,0.5333333333333334,0.074535599249993,0.4408000000000001,0.6258666666666668,0.578695652173913,0.08634993745928744,0.47149523215134936,0.6858960721964767,12.0,0.0,12.0,12.0,0.7714285714285716,0.08377434326551993,0.6674256613000913,0.8754314815570519,0.7,0.14252192813739223,0.5230640228783303,0.8769359771216696,0.7226660920778569,0.07224796033111777,0.6329727822602211,0.8123594018954927,8.0,0.0,8.0,8.0,0.5333333333333334,0.578695652173913,0.5166666666666667,0.5684392419175028
27,inceptiontime,inception_time,0,50,10,10.0,5.0,50.0,0.9,model=inceptiontime|resolved_model=inception_time|extra_input=0|cnn_epochs=50|cnn_patience=10|window_sec=10|hop_sec=5|overlap_pct=50|max_windows_fraction=0p9,5,5,5,0,0,True,0.6703703703703703,0.03947421064313372,0.6213645217790121,0.7193762189617284,0.04900584859135818,0.6296296296296297,0.7129629629629629,0.6645490109965813,0.033514137509541755,0.6229423842470165,0.706155637746146,0.04160662674956475,0.6234848484848484,0.6996305768684286,0.6659259259259259,0.022351092380236116,0.6381778283403993,0.6936740235114526,0.027748097585526686,0.6333333333333333,0.6888888888888888,0.6600174235712767,0.025467904031302092,0.628399913592915,0.6916349335496383,0.03161750997836167,0.6336906804549008,0.6943202283382002,0.6173776402178289,0.019947097604799156,0.5926140178646138,0.6421412625710441,0.02476362235321518,0.5971527868305543,0.6499130040712618,0.6118793606052783,0.023609428021836434,0.5825690834365583,0.6411896377739982,0.029310277168719975,0.5844866471562732,0.6449543022595969,0.9466164292223163,0.3361087730050469,0.5293491711377629,1.3638836873068696,0.41726725808455334,0.4396074313349487,1.3352764189149966,0.7455588169562338,0.05864538154791804,0.6727526318065984,0.8183650021058693,0.07280618514963541,0.6825406587399208,0.8353084179157985,165.59702832177283,15.403328152543422,146.4743364440101,184.71972019953554,19.12269187776272,150.745113494806,191.3166569517925,7825.0,0.0,7825.0,7825.0,0.0,7825.0,7825.0,0.0,0.0,0.0,0.0,0.0,0.0,0.0,0.6383838383838383,0.048125774745743796,0.5786373762733422,0.6981303004943343,0.711111111111111,0.12668615834434865,0.5538346870029602,0.8683875352192618,0.6701587301587301,0.07494349933595686,0.5771190031691977,0.7631984571482624,9.0,0.0,9.0,9.0,0.604965034965035,0.049265253118474905,0.5438039504036426,0.6661261195264273,0.55,0.04564354645876386,0.49333513728361583,0.6066648627163842,0.5737824204780726,0.024021437856355687,0.5439606475444053,0.6036041934117399,12.0,0.0,12.0,12.0,0.751984126984127,0.08345135255878208,0.6483821984943654,0.8555860554738886,0.75,0.08838834764831845,0.6402689651921573,0.8597310348078427,0.7497058823529411,0.07669931855712948,0.6544863673573996,0.8449253973484826,8.0,0.0,8.0,8.0,0.55,0.5737824204780726,0.5444444444444445,0.5728935315891838
28,cnn,cnn1d,0,50,20,15.0,10.5,30.000000000000004,0.9,model=cnn|resolved_model=cnn1d|extra_input=0|cnn_epochs=50|cnn_patience=20|window_sec=15|hop_sec=10p5|overlap_pct=30|max_windows_fraction=0p9,5,5,5,0,0,True,0.6685185185185186,0.019256142910264312,0.6446126921944624,0.6924243448425749,0.023905826324056263,0.6388888888888888,0.6898148148148149,0.6632123404631144,0.02705028265048693,0.629630362905476,0.6967943180207528,0.03358197755763835,0.6269818932357631,0.703076923076923,0.6448148148148147,0.020047953485517613,0.619925983421583,0.6697036462080465,0.0248888313932317,0.6231481481481481,0.6768518518518519,0.6384071221378707,0.030296286739861178,0.6007953443045814,0.6760188999711599,0.0376117778332893,0.6043083900226757,0.6743504392048081,0.6049595374288218,0.014495316289907252,0.5869641104446319,0.6229549644130117,0.017995426984189843,0.5920083544274418,0.6272106309589146,0.5995350651262598,0.01781966233215521,0.5774125790785083,0.6216575511740112,0.022122486047751428,0.5801324807438131,0.6218088450204823,0.9380780803827008,0.2734105993497356,0.5986484067627103,1.2775077540026913,0.33942967361999055,0.5054626917069424,1.2107768065404672,0.7439465405873674,0.05734488431516873,0.6727548771581982,0.8151382040165367,0.07119166342916931,0.7037037037037037,0.8445566778900112,44.99947526995093,4.682786654404032,39.185959811820446,50.81299072808141,5.813515458130483,38.37160303257406,50.73301889095456,3908.0,0.0,3908.0,3908.0,0.0,3908.0,3908.0,0.0,0.0,0.0,0.0,0.0,0.0,0.0,0.6032634032634032,0.06043547806620186,0.5282348760451192,0.6782919304816872,0.7555555555555555,0.04969039949999535,0.6938666666666666,0.8172444444444444,0.6678787878787877,0.03182539600755422,0.6283686744985344,0.7073889012590411,9.0,0.0,9.0,9.0,0.6198626373626374,0.07580672975756605,0.5257512400685794,0.7139740346566953,0.55,0.16244657241348273,0.34832827554551826,0.7516717244544818,0.5698728639781272,0.09205416930517815,0.4555908401029391,0.6841548878533152,12.0,0.0,12.0,12.0,0.8555555555555555,0.1323458805507955,0.6912527847516913,1.0198583263594196,0.7,0.14252192813739223,0.5230640228783303,0.8769359771216696,0.7518853695324282,0.056353944477618795,0.6819239231703244,0.8218468158945321,8.0,0.0,8.0,8.0,0.55,0.5698728639781272,0.4916666666666666,0.5698728639781272
29,cnn,cnn1d,PPI,50,20,15.0,10.5,30.000000000000004,0.9,model=cnn|resolved_model=cnn1d|extra_input=PPI|cnn_epochs=50|cnn_patience=20|window_sec=15|hop_sec=10p5|overlap_pct=30|max_windows_fraction=0p9,5,5,5,0,0,True,0.6685185185185185,0.04992707301682564,0.6065358077559961,0.7305012292810409,0.061982710762522424,0.6203703703703703,0.7407407407407408,0.6629199074508,0.052733212711500915,0.597453472637487,0.7283863422641129,0.06546643481331296,0.5925925925925926,0.7287878787878789,0.6272222222222222,0.05340594337131378,0.5609206158799432,0.6935238285645012,0.06630160634227901,0.5768518518518518,0.6972222222222223,0.6223085529296783,0.05260956502051493,0.5569956223897734,0.6876214834695833,0.06531293053990492,0.5571637037140973,0.6868663927487457,0.6018790126098567,0.03836896533753934,0.554245287316718,0.6495127379029954,0.04763372529313869,0.5601494598842091,0.6506959569790577,0.5987651182086445,0.0378456010530616,0.551781131326113,0.6457491050911761,0.04698398688253156,0.5453416866877652,0.6444511609432165,1.02411311262711,0.3762032393125599,0.557069980289348,1.4911562449648719,0.467043132337762,0.5744318742213622,1.4829741581391405,0.7721687777243333,0.06550649631098532,0.6908447591394322,0.8534927963092345,0.08132401858490115,0.702145796590241,0.8525252525252526,62.4161080526188,9.33917855720033,50.82184529510809,74.01037081012952,11.594262757510712,51.020054823718965,70.88184173870832,3908.0,0.0,3908.0,3908.0,0.0,3908.0,3908.0,18.0,0.0,18.0,18.0,0.0,18.0,18.0,0.6032323232323232,0.1004286293895377,0.4785537007616954,0.7279109457029511,0.7555555555555555,0.14487116456005883,0.5757030837767717,0.9354080273343394,0.6664745196324144,0.1088222857027537,0.5313754671212201,0.8015735721436088,9.0,0.0,9.0,9.0,0.6296969696969696,0.05985903244224673,0.555384079511281,0.7040098598826583,0.55,0.1513825177048746,0.36206391157275486,0.7379360884272452,0.5755819060166887,0.09108162666143658,0.4625072597374381,0.6886565522959393,12.0,0.0,12.0,12.0,0.8166666666666668,0.10865337342004415,0.6817773128325788,0.9515560205007547,0.7,0.06846531968814576,0.6150027059254237,0.7849972940745762,0.7467032967032967,0.019943616937232466,0.7219439954768372,0.7714625979297562,8.0,0.0,8.0,8.0,0.55,0.5755819060166887,0.5111111111111111,0.5533596837944664
30,inceptiontime,inception_time,HRV,50,20,15.0,7.5,50.0,0.9,model=inceptiontime|resolved_model=inception_time|extra_input=HRV|cnn_epochs=50|cnn_patience=20|window_sec=15|hop_sec=7p5|overlap_pct=50|max_windows_fraction=0p9,5,5,5,0,0,True,0.6675925925925925,0.07031857255441507,0.5802945500575352,0.7548906351276499,0.08729804253505731,0.6203703703703703,0.7916666666666666,0.6667214354040756,0.06040679585882345,0.5917285161406854,0.7417143546674657,0.07499291926339018,0.6308641975308642,0.7716374269005848,0.6096296296296296,0.04976625748524589,0.5478465657115491,0.6714126935477102,0.06178306391808054,0.5805555555555556,0.6981481481481482,0.6096907870964405,0.039075207717980544,0.5611802866480595,0.6582012875448215,0.04851050044838101,0.5803317853268487,0.6769992428213641,0.5885581159554146,0.04588377674252013,0.5315950157639546,0.6455212161468746,0.05696310019146,0.556485026966567,0.6677685278128869,0.5909105743940418,0.03840407647258171,0.5432332598577055,0.6385878889303781,0.04767731453633629,0.5612245205949002,0.6523349925541426,0.9883365657415879,0.352193142085312,0.5511011273440457,1.4255720041391302,0.4372354383975422,0.4937374887765529,1.3614340696374436,0.7781621837926617,0.05979747157333105,0.7039257192674759,0.8523986483178474,0.07423646452518573,0.7178567764440341,0.8546497584541063,227.42440204452723,31.636522979282717,188.14876790719381,266.70003618186064,39.275634137333405,195.3951552696526,277.24042615201324,5215.0,0.0,5215.0,5215.0,0.0,5215.0,5215.0,40.0,0.0,40.0,40.0,0.0,40.0,40.0,0.6176190476190476,0.04590980015821123,0.5606236402693592,0.6746144549687361,0.711111111111111,0.2018433569398328,0.46052965987478406,0.9616925623474379,0.6499999999999999,0.09128709291752768,0.5366702745672316,0.7633297254327682,9.0,0.0,9.0,9.0,0.6105627705627705,0.13854220707782552,0.4385674776119417,0.7825580635135994,0.5666666666666667,0.09128709291752767,0.45333694123389834,0.679996392099435,0.5766068832430389,0.05196663315078538,0.5120921300789242,0.6411216364071536,12.0,0.0,12.0,12.0,0.8380952380952381,0.1183311775218017,0.691191229761908,0.9849992464285682,0.725,0.10458250331675945,0.5951644886789442,0.8548355113210557,0.7735574229691877,0.09725448243723171,0.6528193926577722,0.8942954532806032,8.0,0.0,8.0,8.0,0.5666666666666667,0.5766068832430389,0.513888888888889,0.5580883647245204
31,cnn,cnn1d,PPI,50,20,10.0,7.0,30.000000000000004,0.9,model=cnn|resolved_model=cnn1d|extra_input=PPI|cnn_epochs=50|cnn_patience=20|window_sec=10|hop_sec=7|overlap_pct=30|max_windows_fraction=0p9,5,5,5,0,0,True,0.6675925925925925,0.05923393556134059,0.5940557382693447,0.7411294469158404,0.07353685432324783,0.611111111111111,0.7361111111111112,0.6547225266918362,0.06332065245108966,0.5761121566257315,0.7333328967579409,0.07861037006610475,0.5983193277310924,0.7239475500345066,0.6437037037037037,0.04490693012346597,0.5879533243426391,0.6994540830647682,0.0557503793610645,0.5898148148148148,0.7083333333333334,0.6321878911505399,0.047146472412669074,0.5736571985533012,0.6907185837477785,0.05853069259723865,0.5773287891705999,0.7036163522012578,0.617966720497229,0.043845786788666866,0.5635337133838079,0.6723997276106501,0.05443300711342111,0.5672256743090279,0.6868883740767933,0.6077149828991664,0.048169556997451124,0.5479141666581329,0.6675157991401999,0.05980081624103347,0.5556511858779732,0.686808611505886,0.933981059341815,0.36598719202978097,0.47962079154232345,1.3883413271413065,0.4543602677994915,0.5183720138432912,1.399595821688825,0.7832696173594984,0.05401219566985966,0.7162153700431086,0.8503238646758882,0.06705424731638977,0.7263870901581457,0.8456083837993386,85.03889312762767,9.750442195436289,72.93406098169454,97.1437252735608,12.10483214593313,74.29436025768518,96.36580431926996,5653.0,0.0,5653.0,5653.0,0.0,5653.0,5653.0,18.0,0.0,18.0,18.0,0.0,18.0,18.0,0.5619047619047619,0.085183541999992,0.456152380952381,0.6676571428571428,0.7777777777777777,0.15713484026367724,0.582700382563835,0.9728551729917203,0.65175983436853,0.1102413998661283,0.5148990013760765,0.7886206673609836,9.0,0.0,9.0,9.0,0.6454545454545454,0.11607374805814837,0.501353056657365,0.7895560342517258,0.5,0.13176156917368248,0.33642263128551203,0.6635773687144879,0.5619875776397516,0.12501418546190993,0.40678684924763164,0.7171883060318716,12.0,0.0,12.0,12.0,0.788888888888889,0.04212708580028641,0.7365895887967897,0.8411881889809882,0.725,0.10458250331675945,0.5951644886789442,0.8548355113210557,0.7504201680672269,0.044600202064013515,0.6950505808384266,0.8057897552960271,8.0,0.0,8.0,8.0,0.5,0.5619875776397516,0.4916666666666666,0.5619875776397516
32,inceptiontime,inception_time,PPI,50,20,15.0,7.5,50.0,0.9,model=inceptiontime|resolved_model=inception_time|extra_input=PPI|cnn_epochs=50|cnn_patience=20|window_sec=15|hop_sec=7p5|overlap_pct=50|max_windows_fraction=0p9,5,5,5,0,0,True,0.6657407407407406,0.04714499858555913,0.6072118778481882,0.7242696036332931,0.0585288628925524,0.6203703703703703,0.7453703703703703,0.645561244491787,0.061290873872282284,0.5694707733694834,0.7216517156140906,0.07609047112230362,0.5908496732026144,0.7454545454545455,0.6403703703703704,0.06806846690323601,0.5558657551150405,0.7248749856257002,0.08450461525532978,0.5555555555555555,0.737962962962963,0.6251791958530311,0.0733130017972969,0.5341636743943077,0.7161947173117544,0.09101552145872333,0.5366486824614904,0.7374836136446042,0.6213975514241573,0.05246573464770881,0.5562631812495576,0.686531921598757,0.06513437017459964,0.5612226338612164,0.6964374239565695,0.6079995948176078,0.05639741722700437,0.5379841785612481,0.6780150110739674,0.0700154162563597,0.544789259417043,0.6967883675405094,1.0753171323875033,0.36189101304115157,0.6260421271948979,1.5245921375801086,0.4492750051926054,0.4586193619265138,1.3693486963226855,0.7688641449992235,0.07250115823275612,0.6788564988635416,0.8588717911349054,0.09000764613568188,0.6828438937749167,0.8691022544283413,265.82839967273173,39.50254950220298,216.78736938136808,314.8694299640954,49.04103029136366,221.44853617064652,313.3094148114324,5215.0,0.0,5215.0,5215.0,0.0,5215.0,5215.0,18.0,0.0,18.0,18.0,0.0,18.0,18.0,0.6206060606060607,0.04938324851768843,0.5592984888933327,0.6819136323187888,0.8222222222222222,0.09938079899999064,0.6988444444444445,0.9455999999999999,0.7040350877192982,0.03872387273353375,0.6559607573366926,0.7521094181019039,9.0,0.0,9.0,9.0,0.6117171717171717,0.08224294281389448,0.5096154415601811,0.7138189018741622,0.45,0.1263812574008592,0.29310209972370216,0.6068979002762979,0.513138841834494,0.10392299249587383,0.384122090075849,0.6421555935931389,12.0,0.0,12.0,12.0,0.7211904761904762,0.16178304248117947,0.5203425008843245,0.9220384514966278,0.725,0.10458250331675945,0.5951644886789442,0.8548355113210557,0.7195098039215686,0.12290555977812902,0.5669268603897822,0.872092747453355,8.0,0.0,8.0,8.0,0.45,0.513138841834494,0.45,0.513138841834494
33,inceptiontime,inception_time,PPI,50,10,10.0,5.0,50.0,0.9,model=inceptiontime|resolved_model=inception_time|extra_input=PPI|cnn_epochs=50|cnn_patience=10|window_sec=10|hop_sec=5|overlap_pct=50|max_windows_fraction=0p9,5,5,5,0,0,True,0.662037037037037,0.08580441200393815,0.5555138677417714,0.7685602063323026,0.10652316929526562,0.5509259259259259,0.7777777777777778,0.6561474594846067,0.07625352591373097,0.5614813804268483,0.7508135385423652,0.09466607905775845,0.5617283950617283,0.7579365079365079,0.6068518518518518,0.06143153928727806,0.5305867495484045,0.683116954155299,0.07626510230344727,0.5444444444444444,0.6749999999999999,0.6015135433750097,0.05577363252316565,0.5322725339592652,0.6707545527907542,0.06924100941574456,0.5475913634295219,0.665585766489381,0.5966452801685634,0.053352845700911436,0.5304095927225434,0.6628809676145835,0.06623568744601999,0.5326265614240268,0.6522927671244402,0.5926779279817009,0.04847586384974684,0.5324968425223212,0.6528590134410807,0.060181085459379724,0.5408722037102857,0.6450581463281468,1.1072025576640976,0.4525980854037569,0.5453179022227819,1.6690872131054133,0.5618846554413157,0.5106684105149011,1.639519495210067,0.7670390688334546,0.0572505663428398,0.695964497860248,0.8381136398066612,0.07107457097320656,0.6910679847539217,0.8377159373529609,189.99696753099562,40.16916036358131,140.12836322586904,239.8655718361222,49.86860430512659,144.080742046237,245.65731329564005,7825.0,0.0,7825.0,7825.0,0.0,7825.0,7825.0,18.0,0.0,18.0,18.0,0.0,18.0,18.0,0.611978021978022,0.08121875357114741,0.5111477868589618,0.7128082570970822,0.711111111111111,0.20184335693983282,0.46052965987478406,0.9616925623474379,0.6513328776486672,0.12870887811696255,0.4915453178571306,0.8111204374402038,9.0,0.0,9.0,9.0,0.6178282828282828,0.11182415831755793,0.47900251070813715,0.7566540549484285,0.55,0.074535599249993,0.4574666666666667,0.6425333333333334,0.5754428341384863,0.0678634593091515,0.4911927286238733,0.6596929396530993,12.0,0.0,12.0,12.0,0.7607142857142858,0.06633634150359538,0.6783600434162124,0.8430685280123592,0.725,0.10458250331675945,0.5951644886789442,0.8548355113210557,0.7416666666666666,0.08539125638299667,0.6356564155900215,0.8476769177433117,8.0,0.0,8.0,8.0,0.55,0.5754428341384863,0.5222222222222224,0.5717391304347826
34,cnn,cnn1d,0,50,10,5.0,3.5,30.000000000000004,0.9,model=cnn|resolved_model=cnn1d|extra_input=0|cnn_epochs=50|cnn_patience=10|window_sec=5|hop_sec=3p5|overlap_pct=30|max_windows_fraction=0p9,5,5,5,0,0,True,0.6611111111111112,0.09203536029473464,0.5468524379629657,0.7753697842592567,0.11425867314814553,0.5740740740740741,0.8101851851851851,0.6546204278812975,0.0934207994732485,0.5386417805649897,0.7705990751976053,0.1159786473163078,0.549344375431332,0.7996031746031745,0.6246296296296296,0.032740353190265366,0.5839836289844256,0.6652756302748337,0.04064600064520408,0.5981481481481482,0.6768518518518518,0.6206967030329396,0.02930821803808778,0.5843115778523079,0.6570818282135712,0.036385125180631646,0.5982839982839984,0.6670830925752097,0.5734302706251838,0.020124710467765265,0.5484461481295064,0.5984143931208612,0.024984122495677403,0.5508878723967987,0.6026336158520067,0.5722494727071724,0.01781621290650276,0.5501312690004354,0.5943676764139094,0.022118203706736957,0.5526205191641558,0.5990549158161583,1.0776374762130703,0.22812482105735432,0.7944285086738556,1.360846443752285,0.2832089675392147,0.7831657408648383,1.409400348047741,0.6917603792316263,0.03401914185546269,0.6495268072914936,0.7339939511717589,0.042233571940132705,0.6513935340022297,0.7397632883548377,63.87624193560332,10.502743335272472,50.837454299408066,76.91502957179857,13.03878763619525,52.29743605386466,80.97831499669701,11295.0,0.0,11295.0,11295.0,0.0,11295.0,11295.0,0.0,0.0,0.0,0.0,0.0,0.0,0.0,0.5915584415584416,0.06423504350782758,0.5118128870529342,0.6713039960639491,0.7999999999999999,0.09296222517045283,0.6845906566035059,0.9154093433964939,0.6791304347826086,0.0694894465591035,0.5928617231024917,0.7653991464627254,9.0,0.0,9.0,9.0,0.6303030303030301,0.16483536291605197,0.4256657061879572,0.8349403544181031,0.5333333333333334,0.12638125740085918,0.3764354330570356,0.6902312336096312,0.5763975155279504,0.1393606987372741,0.40338609387732693,0.7494089371785738,12.0,0.0,12.0,12.0,0.7845238095238096,0.08912684278211808,0.6738759588981759,0.8951716601494434,0.65,0.13693063937629152,0.4800054118508475,0.8199945881491526,0.7083333333333334,0.10991776971797255,0.5718742758237008,0.844792390842966,8.0,0.0,8.0,8.0,0.5333333333333334,0.5763975155279504,0.5333333333333334,0.5763975155279504
35,cnn,cnn1d,HRV,50,20,10.0,5.0,50.0,0.9,model=cnn|resolved_model=cnn1d|extra_input=HRV|cnn_epochs=50|cnn_patience=20|window_sec=10|hop_sec=5|overlap_pct=50|max_windows_fraction=0p9,5,5,5,0,0,True,0.6601851851851851,0.0580644892411598,0.5881001574689493,0.7322702129014209,0.07208502771623576,0.5925925925925926,0.7453703703703703,0.6578015234193724,0.055295999749603926,0.5891534783467288,0.7264495684920159,0.06864804507264356,0.5904761904761905,0.7371212121212122,0.6188888888888889,0.04487923897009594,0.5631728871239121,0.6746048906538658,0.05571600176497677,0.5722222222222223,0.6898148148148149,0.6174528589347388,0.03952012357365649,0.568390011049793,0.6665157068196845,0.049062847884945714,0.5790215804631712,0.6755670399081252,0.5918696720930615,0.04558891135169888,0.5352726369466522,0.6484667072394709,0.05659703514640936,0.5380325265396063,0.6595968631310515,0.5909680695306678,0.04260952225127278,0.5380698414983565,0.6438662975629792,0.052898228032311395,0.5415308071316253,0.6484439561091543,1.1156331024361807,0.5835234722619843,0.39120916930938887,1.8400570355629726,0.7244239331267919,0.6585520557640547,2.0585872190287486,0.7595086661030378,0.055296483240932434,0.6908600207928606,0.828157311413215,0.06864864531017723,0.678438339938955,0.8025677219869598,103.8917203316465,11.6398943754439,89.44119954633406,118.34224111695893,14.45052078531244,89.92314718477428,116.98014576546848,7825.0,0.0,7825.0,7825.0,0.0,7825.0,7825.0,40.0,0.0,40.0,40.0,0.0,40.0,40.0,0.5947474747474748,0.04317753537743045,0.5411440783329495,0.6483508711620001,0.6888888888888889,0.09296222517045284,0.5734795454923949,0.8042982322853829,0.6374269005847953,0.06318360966649508,0.5589866643311966,0.7158671368383941,9.0,0.0,9.0,9.0,0.6148917748917748,0.0798032897622444,0.5158187884668748,0.7139647613166749,0.5666666666666667,0.06972166887783962,0.48010965911929615,0.6532236742140372,0.5863744950701473,0.05367184880012528,0.5197427764603485,0.653006213679946,12.0,0.0,12.0,12.0,0.7911904761904761,0.14174067694608272,0.6152243950330161,0.9671565573479362,0.725,0.16298006013006622,0.5226659692488681,0.9273340307511319,0.7496031746031746,0.129139081003306,0.5892815330106791,0.9099248161956701,8.0,0.0,8.0,8.0,0.5666666666666667,0.5863744950701473,0.5444444444444445,0.5726695526695527
36,cnn,cnn1d,HRV,50,20,5.0,2.5,50.0,0.9,model=cnn|resolved_model=cnn1d|extra_input=HRV|cnn_epochs=50|cnn_patience=20|window_sec=5|hop_sec=2p5|overlap_pct=50|max_windows_fraction=0p9,5,5,5,0,0,True,0.6583333333333334,0.10213554766104674,0.5315356316712907,0.7851310349953762,0.12679770166204277,0.5601851851851852,0.7731481481481483,0.6633858196215175,0.10031248688997751,0.5388513839922663,0.7879202552507688,0.12453443562925122,0.5628019323671497,0.7691647597254004,0.6216666666666667,0.07351233764483504,0.5304036767417187,0.7129296565916147,0.09126298992494795,0.5740740740740741,0.7472222222222222,0.6251903670668733,0.07132009321199552,0.5366489717476345,0.713731762386112,0.08854139531923876,0.5767849197986185,0.7455090718248613,0.5910592857164854,0.06386683655404503,0.5117708472351711,0.6703477241977996,0.07928843848131431,0.538199993000991,0.6939807491141171,0.5959368075477827,0.061427083187839224,0.5196772373355628,0.6721963777600025,0.07625957021221985,0.5453366925942925,0.6928394014391076,1.3179732869167036,0.3191564457000872,0.9217517488514435,1.7141948249819636,0.39622153806526006,1.003206336748057,1.7141960369790703,0.7549938504103307,0.046526716054656574,0.6972325636035933,0.8127551372170682,0.05776128680673743,0.687522208555419,0.8179537693722091,186.92688298281283,10.323670461533926,174.11040804126742,199.74335792435824,12.816474941545408,173.55483664758503,198.53705812525004,15657.0,0.0,15657.0,15657.0,0.0,15657.0,15657.0,40.0,0.0,40.0,40.0,0.0,40.0,40.0,0.5915151515151515,0.10789325745657773,0.45756945500088364,0.7254608480294195,0.6666666666666666,0.1111111111111111,0.5287261176546796,0.8046072156786537,0.6259649122807017,0.1063351843811132,0.49395350886530714,0.7579763156960964,9.0,0.0,9.0,9.0,0.6212121212121212,0.11146923461789517,0.48282697442187517,0.7595972680023673,0.6333333333333333,0.09501461875826149,0.5153760152522202,0.7512906514144464,0.6244306418219462,0.09471526419831175,0.5068449619319715,0.7420163217119209,12.0,0.0,12.0,12.0,0.8392857142857142,0.11293848786315641,0.6990765411018673,0.979494887469561,0.675,0.18957188610128875,0.4396531495855533,0.9103468504144467,0.7397619047619048,0.156943416006102,0.5449221560526194,0.9346016534711903,8.0,0.0,8.0,8.0,0.6333333333333333,0.6244306418219462,0.5694444444444444,0.5843935926773455
37,inceptiontime,inception_time,PPI,50,10,10.0,7.0,30.000000000000004,0.9,model=inceptiontime|resolved_model=inception_time|extra_input=PPI|cnn_epochs=50|cnn_patience=10|window_sec=10|hop_sec=7|overlap_pct=30|max_windows_fraction=0p9,5,5,5,0,0,True,0.6564814814814814,0.0910990657499914,0.5433851851851852,0.7695777777777777,0.11309629629629624,0.5833333333333334,0.8055555555555555,0.6540011100011099,0.08717346883588298,0.5457783046466006,0.7622239153556193,0.10822280535450934,0.5917948717948719,0.7948051948051947,0.6401851851851852,0.053821709430634676,0.5733674198565567,0.7070029505138137,0.06681776532862847,0.5768518518518518,0.7148148148148149,0.6328299691771893,0.045596689265901005,0.576223278022983,0.6894366603313955,0.05660669115420624,0.5838486201763426,0.6947926133210961,0.6121383284505061,0.04819371992707643,0.5523075147794684,0.6719691421215438,0.05983081367103775,0.5572782082621275,0.6638610853039022,0.6070780791789764,0.04377271043552407,0.5527357937960061,0.6614203645619466,0.054342285382970305,0.5626228379284063,0.6513238720003385,0.9558723910735688,0.3983162802416153,0.4613766936811008,1.4503680884660368,0.494495697392468,0.5483501025703834,1.548532175056604,0.767027543285119,0.06733898583277488,0.6834285532039686,0.8506265333662695,0.08359899008115043,0.6692307692307692,0.8359146158141133,144.8255708420649,14.961698405075499,126.25114681273394,163.39999487139588,18.574424029330963,129.0640287976712,166.04828771576285,5653.0,0.0,5653.0,5653.0,0.0,5653.0,5653.0,18.0,0.0,18.0,18.0,0.0,18.0,18.0,0.5590909090909091,0.1131809054362612,0.4185807829889442,0.699601035192874,0.711111111111111,0.16850834320114558,0.5019139107427139,0.9203083114795082,0.6257142857142857,0.13567668652095732,0.45727643607283264,0.7941521353557387,9.0,0.0,9.0,9.0,0.6076923076923076,0.11564074137209931,0.4641283815151224,0.7512562338694928,0.5333333333333334,0.09501461875826149,0.41537601525222034,0.6512906514144465,0.5665454545454545,0.0991334354117163,0.44347476999022595,0.689616139100683,12.0,0.0,12.0,12.0,0.8314285714285715,0.10407512984887995,0.7022229464799364,0.9606341963772066,0.725,0.13693063937629152,0.5550054118508474,0.8949945881491526,0.7697435897435898,0.11432778118904775,0.6278096576027337,0.911677521884446,8.0,0.0,8.0,8.0,0.5333333333333334,0.5665454545454545,0.5166666666666667,0.5574545454545455
38,cnn,cnn1d,0,50,10,5.0,2.5,50.0,0.9,model=cnn|resolved_model=cnn1d|extra_input=0|cnn_epochs=50|cnn_patience=10|window_sec=5|hop_sec=2p5|overlap_pct=50|max_windows_fraction=0p9,5,5,5,0,0,True,0.6555555555555557,0.06910410428535292,0.569765232798627,0.7413458783124843,0.08579032275692867,0.5648148148148148,0.736111111111111,0.6626114359974009,0.07579994823876128,0.5685084577211865,0.7567144142736153,0.09410297827621436,0.557142857142857,0.743859649122807,0.6205555555555556,0.03184296818405786,0.581023626934234,0.6600874841768772,0.039531928621321585,0.5768518518518518,0.6564814814814816,0.6253549105785619,0.03874145630987209,0.5772587508023929,0.6734510703547308,0.048096159776168976,0.5684222872452066,0.664152897425034,0.5665493484127937,0.03125103523097365,0.5277522838002127,0.6053464130253747,0.03879706461258108,0.5309916739024229,0.6046334383782729,0.5680768598630344,0.034797021140704334,0.5248775780618601,0.6112761416642086,0.04319928180117427,0.5244386453151576,0.6086414630094675,1.1852281230228359,0.2437218391894135,0.8826560042868457,1.487800241758826,0.3025721187359902,0.8834814745753004,1.3916646594968056,0.7005703855270211,0.05223625909748478,0.6357209012028661,0.7654198698511762,0.06484948432415506,0.6100735729579517,0.7378954712288047,90.48308068383486,6.956062269385177,81.84737324822981,99.1187881194399,8.635707435605035,81.58029101416469,100.40137188509108,15657.0,0.0,15657.0,15657.0,0.0,15657.0,15657.0,0.0,0.0,0.0,0.0,0.0,0.0,0.0,0.7276190476190477,0.10270712163461267,0.6001117569075731,0.8551263383305223,0.6,0.09938079899999064,0.4766222222222222,0.7233777777777777,0.6489348370927319,0.06597330802205766,0.5670312881344359,0.7308383860510279,9.0,0.0,9.0,9.0,0.588076923076923,0.06899234824031825,0.5024253415318618,0.6737285046219843,0.6666666666666666,0.11785113019775793,0.5203586202562096,0.8129747130771237,0.6227089947089948,0.0815200073835772,0.5215047635434279,0.7239132258745616,12.0,0.0,12.0,12.0,0.7523809523809525,0.18334879341122337,0.5247598533664866,0.9800020513954184,0.7,0.11180339887498948,0.5611999999999999,0.8388,0.7161904761904762,0.128023523915478,0.5572537596123236,0.8751271927686287,8.0,0.0,8.0,8.0,0.6,0.6227089947089948,0.5833333333333333,0.6156914508493456
39,inceptiontime,inception_time,PPI,50,10,5.0,3.5,30.000000000000004,0.9,model=inceptiontime|resolved_model=inception_time|extra_input=PPI|cnn_epochs=50|cnn_patience=10|window_sec=5|hop_sec=3p5|overlap_pct=30|max_windows_fraction=0p9,5,5,5,0,0,True,0.6537037037037037,0.06623768876473858,0.5714719353222653,0.7359354720851421,0.08223176838143847,0.5740740740740741,0.7546296296296297,0.6345644938510735,0.06652140905407918,0.5519804966773377,0.7171484910248093,0.08258399717373581,0.5622478656534384,0.7284780578898227,0.644074074074074,0.04935107010707371,0.5828064507299847,0.7053416974181633,0.06126762334408927,0.5787037037037037,0.7046296296296296,0.6303156225774466,0.040247710429119433,0.5803495011198326,0.6802817440350605,0.049966121457613887,0.5751199704688077,0.6800801204796766,0.6142338909788164,0.05374762478416619,0.5475080991414529,0.6809596828161799,0.06672579183736348,0.5496176594978258,0.6885714599703351,0.6010138240751765,0.04811003425381744,0.5412869032335628,0.6607407449167901,0.059726920841613705,0.5438505117557327,0.6730206369907892,1.0719089745618393,0.3054361424046605,0.6927207120192185,1.4510972371044601,0.37918826254262084,0.6652639807621197,1.4179557855934362,0.7557728816249553,0.04692462526644192,0.6975176044820425,0.814028158767868,0.05825527714291281,0.6955074508781861,0.8068640234465375,180.0122951829806,25.620402339011385,148.20546390201957,211.81912646394164,31.806831280961042,153.67125912290066,222.46243909746408,11295.0,0.0,11295.0,11295.0,0.0,11295.0,11295.0,18.0,0.0,18.0,18.0,0.0,18.0,18.0,0.5915151515151515,0.0866528914672366,0.4839386247129509,0.6990916783173522,0.711111111111111,0.12668615834434865,0.5538346870029602,0.8683875352192618,0.6450125313283208,0.10029660599723944,0.5204978112706374,0.7695272513860042,9.0,0.0,9.0,9.0,0.6026695526695527,0.09562729299851684,0.4839516209988427,0.7213874843402627,0.45,0.09501461875826152,0.3320426819188869,0.5679573180811132,0.5120968428977581,0.08652856879113989,0.40467465833931626,0.6195190274562,12.0,0.0,12.0,12.0,0.7075901875901875,0.10678939954036779,0.5750148919788587,0.8401654832015164,0.8,0.06846531968814577,0.7150027059254238,0.8849972940745763,0.7465841073271415,0.06502340771033614,0.6658598263033952,0.8273083883508878,8.0,0.0,8.0,8.0,0.45,0.5120968428977581,0.45,0.5103577124629756
40,cnn,cnn1d,PPI,50,10,10.0,5.0,50.0,0.9,model=cnn|resolved_model=cnn1d|extra_input=PPI|cnn_epochs=50|cnn_patience=10|window_sec=10|hop_sec=5|overlap_pct=50|max_windows_fraction=0p9,5,5,5,0,0,True,0.6518518518518518,0.0772884741112973,0.555900920890952,0.7478027828127516,0.09595093096089985,0.5601851851851852,0.7685185185185185,0.6438725640731293,0.07487558661737931,0.5509171483427663,0.7368279798034924,0.092955415730363,0.5643274853801169,0.7625858123569794,0.6368518518518518,0.05762875487291928,0.5653077730774224,0.7083959306262811,0.07154407877442936,0.5675925925925925,0.7231481481481481,0.6253450684164614,0.05297584948508905,0.5595774085553152,0.6911127282776076,0.06576765986114616,0.5694406603497512,0.7090695573622403,0.6100795090129594,0.05063688712293999,0.5472155889229922,0.6729434291029266,0.06286392008996722,0.5369822032964274,0.6777436998417876,0.5999585985015224,0.04690168264682094,0.5417318038165263,0.6581853931865186,0.058226794684996176,0.5369515642638621,0.6675990235766283,1.1709619798592303,0.39875529295346673,0.6759212635762981,1.6660026961421626,0.4950407162829323,0.6140175431290916,1.6021521990027294,0.7770709206219031,0.04125179337841529,0.7258582653847742,0.828283575859032,0.051212655237128896,0.7123486220485535,0.8257153099863324,65.72358461301774,11.643991203236498,51.26797775963102,80.17919146640445,14.455606853386708,53.33820570167154,78.05956937745214,7825.0,0.0,7825.0,7825.0,0.0,7825.0,7825.0,18.0,0.0,18.0,18.0,0.0,18.0,18.0,0.5843589743589743,0.12534108625145868,0.42875241009740905,0.7399655386205396,0.7555555555555555,0.12171612389003689,0.6044492549785311,0.90666185613258,0.656029401567159,0.116393969979689,0.5115303684810117,0.8005284346533064,9.0,0.0,9.0,9.0,0.6154545454545455,0.11990009615447038,0.46660277964330643,0.7643063112657845,0.5,0.11785113019775792,0.353691953589543,0.646308046410457,0.5482213438735177,0.11036235639308686,0.411210347593447,0.6852323401535885,12.0,0.0,12.0,12.0,0.7642857142857142,0.08003683959034101,0.6649227839372305,0.863648644634198,0.7,0.06846531968814577,0.6150027059254237,0.7849972940745762,0.7273669467787116,0.05026192878298796,0.6649685243221709,0.7897653692352523,8.0,0.0,8.0,8.0,0.5,0.5482213438735177,0.5,0.5482213438735177
41,cnn,cnn1d,0,50,20,15.0,7.5,50.0,0.9,model=cnn|resolved_model=cnn1d|extra_input=0|cnn_epochs=50|cnn_patience=20|window_sec=15|hop_sec=7p5|overlap_pct=50|max_windows_fraction=0p9,5,5,5,0,0,True,0.6509259259259259,0.015562718809232956,0.6316053561359429,0.6702464957159089,0.019320569789982936,0.625,0.6666666666666666,0.6516916930006176,0.02167184910409781,0.6247868521288998,0.6785965338723353,0.026904840871717718,0.622234935163997,0.6720647773279352,0.622037037037037,0.00978594636341875,0.6098881277112905,0.6341859463627836,0.012148909325746561,0.6148148148148148,0.6388888888888888,0.6284165385906156,0.018470667126167954,0.6054858529146042,0.6513472242666271,0.022930685676011413,0.6024110938010886,0.6508257499157398,0.5970338424134536,0.0060518298468477255,0.5895207078290419,0.6045469769978653,0.0075131345844117415,0.5888942387748924,0.604026290956039,0.6019047751657997,0.004960330285735139,0.5957466990197439,0.6080628513118554,0.006158076146055824,0.5932733973795529,0.6050798876773793,1.11739098641521,0.4091739281345836,0.6094158998207281,1.6253660730096922,0.507975086594482,0.549223851257914,1.4997897468353236,0.7278211378938645,0.05530965612202279,0.6591561389136402,0.7964861368740888,0.0686649989802243,0.6908573432669227,0.8257850241545895,64.4168921707198,3.6091484414125667,59.936260913451946,68.89752342798766,4.48063125726786,59.23803197126836,68.43815218657255,5215.0,0.0,5215.0,5215.0,0.0,5215.0,5215.0,0.0,0.0,0.0,0.0,0.0,0.0,0.0,0.6076190476190476,0.03525096290156523,0.5638562130364597,0.6513818822016355,0.711111111111111,0.09938079899999064,0.5877333333333333,0.8344888888888887,0.6514111365369948,0.02902562561470702,0.615376839942613,0.6874454331313765,9.0,0.0,9.0,9.0,0.5778221778221779,0.03570363044281603,0.5334973723571497,0.6221469832872062,0.5666666666666667,0.13693063937629152,0.3966720785175141,0.7366612548158191,0.5641035029044182,0.08325916660336743,0.4607401665404772,0.6674668392683593,12.0,0.0,12.0,12.0,0.8333333333333334,0.10206207261596575,0.706626848363805,0.9600398183028618,0.675,0.06846531968814577,0.5900027059254238,0.7599972940745763,0.7395604395604396,0.024371708918919648,0.7093038173827145,0.7698170617381647,8.0,0.0,8.0,8.0,0.5666666666666667,0.5641035029044182,0.55,0.5641035029044182
42,cnn,cnn1d,PPI,50,10,10.0,7.0,30.000000000000004,0.9,model=cnn|resolved_model=cnn1d|extra_input=PPI|cnn_epochs=50|cnn_patience=10|window_sec=10|hop_sec=7|overlap_pct=30|max_windows_fraction=0p9,5,5,5,0,0,True,0.65,0.03783854952167144,0.6030247673464705,0.6969752326535296,0.046975232653529556,0.611111111111111,0.6990740740740741,0.6320701486336161,0.038706547726681924,0.5840173266396215,0.6801229706276107,0.04805282199399464,0.5940242763772176,0.6883116883116882,0.6216666666666667,0.05197406232927012,0.557142690437922,0.6861906428954114,0.06452397622874477,0.5574074074074074,0.7018518518518517,0.6072688751081743,0.05039395552595374,0.5447065460789529,0.6698312041373957,0.06256232902922144,0.5487878787878788,0.6861632194965527,0.6019073534198558,0.041414765233301884,0.5504923743384978,0.6533223325012137,0.05141497908135793,0.5505105461917957,0.6660709443376959,0.5880764618895921,0.04226671746420606,0.5356038139820679,0.6405491097971162,0.05247264790752411,0.5412073498880964,0.653997783111071,0.9244274563267284,0.37291812525867046,0.4614626779144109,1.387392234739046,0.4629647784123175,0.5183720138432912,1.4092869425686734,0.7828648491511163,0.036400119237520207,0.7376753772655884,0.8280543210366442,0.045189471885527945,0.7459874919867614,0.8319159902074474,43.04136667456478,3.614174758983771,38.554495420249395,47.52823792888016,4.4868712543153855,38.2306892182678,47.52438411582261,5653.0,0.0,5653.0,5653.0,0.0,5653.0,5653.0,18.0,0.0,18.0,18.0,0.0,18.0,18.0,0.57011655011655,0.06469453303767655,0.4898005554689289,0.6504325447641712,0.7999999999999999,0.14487116456005888,0.620147528221216,0.9798524717787839,0.6639393939393939,0.08719312189179779,0.5556921900049807,0.7721865978738072,9.0,0.0,9.0,9.0,0.613968253968254,0.0922780750465177,0.4994082589650801,0.728528248971428,0.45,0.09501461875826152,0.3320426819188869,0.5679573180811132,0.5168648894964684,0.08731902532640362,0.40846138086202693,0.6252683981309097,12.0,0.0,12.0,12.0,0.7412698412698413,0.06486608489429384,0.6607408710066478,0.8217988115330348,0.7,0.11180339887498948,0.5611999999999999,0.8388,0.7154061624649859,0.06429166410283371,0.6355903154758337,0.7952220094541381,8.0,0.0,8.0,8.0,0.45,0.5168648894964684,0.45,0.5168648894964684
43,cnn,cnn1d,PPI,50,10,5.0,3.5,30.000000000000004,0.9,model=cnn|resolved_model=cnn1d|extra_input=PPI|cnn_epochs=50|cnn_patience=10|window_sec=5|hop_sec=3p5|overlap_pct=30|max_windows_fraction=0p9,5,5,5,0,0,True,0.6462962962962963,0.03217509324795195,0.6063520460520869,0.6862405465405056,0.03994425024420931,0.611111111111111,0.6851851851851851,0.638246560561677,0.04564768117570745,0.5815765647391659,0.694916556384188,0.05666999582251107,0.5805682684973302,0.686078431372549,0.638888888888889,0.03416528653239834,0.596473883456011,0.6813038943217669,0.04241500543287785,0.6129629629629629,0.6981481481481482,0.63304687276129,0.036657448488926166,0.58753793563182,0.67855580989076,0.04550893712946998,0.6017460317460318,0.6965733235077377,0.6100896733765406,0.034884816757930134,0.5667813963945976,0.6533979503584837,0.04330827698194303,0.5728211563623645,0.6670541472693589,0.6046494891719374,0.03396567576697611,0.5624822935061989,0.6468166848376758,0.04216719566573845,0.5785222326028925,0.6629522572942504,1.0884696175825979,0.5348746168136201,0.42444153291997533,1.7524977022452204,0.6640280846626225,0.4310424452469406,1.620928628276556,0.7598352313384568,0.07308431519627805,0.6691036162773994,0.8505668463995141,0.09073161506105729,0.6800719172841935,0.8494835645513298,87.96588777154685,5.545315695141809,81.081572748653,94.85020279444069,6.884315022893847,82.91745758336037,96.7352554704994,11295.0,0.0,11295.0,11295.0,0.0,11295.0,11295.0,18.0,0.0,18.0,18.0,0.0,18.0,18.0,0.5792857142857143,0.048207671503991294,0.5194375802210636,0.639133848350365,0.6888888888888889,0.12171612389003689,0.5377825883118644,0.8399951894659133,0.6236947868392209,0.048195742619073945,0.5638614620669815,0.6835281116114602,9.0,0.0,9.0,9.0,0.6142080142080142,0.0544564214147487,0.5466022762034071,0.6818137522126213,0.5499999999999999,0.17280367794439766,0.3354702921375327,0.7645297078624671,0.5731877519886673,0.1223029946489298,0.421352871939516,0.7250226320378187,12.0,0.0,12.0,12.0,0.7416666666666667,0.07453559924999299,0.6491333333333333,0.8342,0.7,0.06846531968814576,0.6150027059254237,0.7849972940745762,0.7178571428571429,0.05416339602893965,0.6506151855958724,0.7850991001184133,8.0,0.0,8.0,8.0,0.5499999999999999,0.5731877519886673,0.5027777777777779,0.545150600285881
44,cnn,cnn1d,HRV,50,20,15.0,7.5,50.0,0.9,model=cnn|resolved_model=cnn1d|extra_input=HRV|cnn_epochs=50|cnn_patience=20|window_sec=15|hop_sec=7p5|overlap_pct=50|max_windows_fraction=0p9,5,5,5,0,0,True,0.6444444444444445,0.03851228582052852,0.5966327917963321,0.6922560970925569,0.0478116526481124,0.5833333333333334,0.6851851851851851,0.6522207742452728,0.040765062931400864,0.6016123777938821,0.7028291706966635,0.05060839645139072,0.5951417004048584,0.704014939309057,0.6175925925925927,0.05023948135648348,0.5552220378290753,0.6799631473561101,0.06237055476351735,0.5555555555555555,0.6925925925925925,0.6216062682163928,0.05040152142017371,0.559034546394749,0.6841779900380365,0.06257172182164367,0.5555393373230185,0.6930706930706932,0.5926732338535492,0.04711809273757902,0.5341777736279749,0.6511686940791235,0.05849546022557431,0.5305014680597399,0.6541938755181188,0.5970110765473515,0.046305097196880314,0.5395249217828317,0.6544972313118713,0.05748615476451983,0.5323542126689474,0.6507305457029121,1.1273572762037436,0.47513951322807396,0.5374882283960245,1.7172263240114627,0.5898690478077191,0.458315685578033,1.6411430157140103,0.7740046510037277,0.039985656546815684,0.7243638602536752,0.8236454417537803,0.04964079075005257,0.7401234567901235,0.8310587761674718,71.99613515045493,10.348893812362615,59.14834630315844,84.84392399775142,12.84778884729649,59.84024521429092,84.51077077630907,5215.0,0.0,5215.0,5215.0,0.0,5215.0,5215.0,40.0,0.0,40.0,40.0,0.0,40.0,40.0,0.625,0.043301270189221926,0.571242991154641,0.678757008845359,0.6666666666666667,0.07856742013183861,0.5691279690596954,0.764205364273638,0.6439628482972136,0.05520914705921673,0.5754226277947266,0.7125030687997006,9.0,0.0,9.0,9.0,0.56004329004329,0.039008388736068836,0.5116157430183529,0.6084708370682271,0.6166666666666667,0.09501461875826149,0.4987093485855536,0.7346239847477798,0.5851170568561873,0.05865821464907885,0.5122949398613751,0.6579391738509995,12.0,0.0,12.0,12.0,0.8414285714285714,0.09641534300798259,0.72173230329927,0.9611248395578729,0.65,0.13693063937629152,0.4800054118508475,0.8199945881491526,0.7275824175824177,0.10921247110539281,0.5919989635733148,0.8631658715915206,8.0,0.0,8.0,8.0,0.6166666666666667,0.5851170568561873,0.5277777777777779,0.5694307823463834
45,cnn,cnn1d,0,50,10,15.0,10.5,30.000000000000004,0.9,model=cnn|resolved_model=cnn1d|extra_input=0|cnn_epochs=50|cnn_patience=10|window_sec=15|hop_sec=10p5|overlap_pct=30|max_windows_fraction=0p9,5,5,5,0,0,True,0.6425925925925926,0.042355418561046985,0.5900098253831026,0.6951753598020826,0.052582767209489935,0.5972222222222222,0.7037037037037037,0.643763803081118,0.03882530683937011,0.5955635458122839,0.6919640603499522,0.04820025726883411,0.5927726926010678,0.6954545454545454,0.6127777777777776,0.04260969865832291,0.5598793307422981,0.6656762248132572,0.052898447035479496,0.5694444444444444,0.6749999999999999,0.6119588228521221,0.04428400180669776,0.5569817871571487,0.6669358585470955,0.05497703569497342,0.5586665156491865,0.6706243144940628,0.5838673900226353,0.029123984065737536,0.5477109848596375,0.6200237951856331,0.03615640516299778,0.549043653553363,0.6194941570050791,0.581400618338165,0.03093703552102122,0.5429933733570079,0.6198078633193221,0.03840724498115709,0.5385979967186898,0.6142208367330616,0.9830100968195337,0.19251262957967027,0.7440124164758846,1.2220077771631828,0.23899768034364904,0.7267501316736081,1.214073990367673,0.6975115172892952,0.028044325173865414,0.662695470788912,0.7323275637896783,0.03481604650038315,0.6604644326866549,0.7357351290684625,26.3605666577816,4.621970630722525,20.622552160909294,32.09858115465391,5.738014496872305,19.105896272696555,31.30133251659572,3908.0,0.0,3908.0,3908.0,0.0,3908.0,3908.0,0.0,0.0,0.0,0.0,0.0,0.0,0.0,0.6145454545454545,0.019917183909278775,0.5898189689964869,0.6392719400944221,0.711111111111111,0.060858061945018485,0.6355579608225987,0.7866642613996233,0.6589473684210526,0.03747575393456399,0.6124225337697056,0.7054722030723997,9.0,0.0,9.0,9.0,0.5815151515151514,0.0688552600166169,0.49603376019365414,0.6669965428366487,0.5666666666666667,0.06972166887783962,0.48010965911929615,0.6532236742140372,0.5711535646318254,0.04935560949583255,0.509880305795738,0.6324268234679129,12.0,0.0,12.0,12.0,0.7916666666666667,0.13819269959814168,0.6201052749985204,0.9632280583348131,0.65,0.10458250331675945,0.5201644886789443,0.7798355113210558,0.7011904761904761,0.054619379747402205,0.6333824311290184,0.7689985212519339,8.0,0.0,8.0,8.0,0.5666666666666667,0.5711535646318254,0.5333333333333334,0.5711535646318254
46,inceptiontime,inception_time,HRV,50,20,5.0,2.5,50.0,0.9,model=inceptiontime|resolved_model=inception_time|extra_input=HRV|cnn_epochs=50|cnn_patience=20|window_sec=5|hop_sec=2p5|overlap_pct=50|max_windows_fraction=0p9,5,5,5,0,0,True,0.6416666666666666,0.09845993454478025,0.519432109825545,0.7639012235077882,0.12223455684112164,0.5648148148148148,0.8055555555555555,0.6429934330852803,0.09307961889210008,0.5274383494990551,0.7585485166715056,0.11555508358622522,0.5668627450980392,0.7948051948051947,0.5955555555555556,0.062465353908846805,0.518007008643826,0.6731041024672852,0.07754854691172958,0.5314814814814814,0.6944444444444445,0.598223088728958,0.057710591755737325,0.5265774123336205,0.6698687651242955,0.07164567639533752,0.5380426374578421,0.6860574860574861,0.5723729002015807,0.05439364648877377,0.5048450950667522,0.6399007053364092,0.06752780513482853,0.5095379422948664,0.6510610925831574,0.575688117382368,0.051600804972651675,0.5116275270758757,0.6397487076888604,0.06406059030649237,0.5151805360096228,0.6470567801922537,1.1980163438702205,0.5923594137859427,0.46262289911975507,1.9334097886206858,0.7353934447504654,0.6070819279772506,2.150607574312549,0.7537083109206959,0.06943101814204898,0.6675121360719167,0.8399044857694751,0.0861961748487792,0.6571773495512733,0.8275091079361817,438.48734424430876,46.59761985320054,380.63803285748764,496.3366556311299,57.84931138682113,385.05695364810526,504.48063986748457,15657.0,0.0,15657.0,15657.0,0.0,15657.0,15657.0,40.0,0.0,40.0,40.0,0.0,40.0,40.0,0.6283333333333333,0.09159087776022724,0.5146264696687135,0.7420401969979531,0.6666666666666667,0.20786985482077452,0.4086035295934897,0.9247298037398437,0.6428424001179419,0.14077693370221694,0.4680727724099708,0.817612027825913,9.0,0.0,9.0,9.0,0.6051282051282051,0.12644951800962004,0.44814556169927194,0.7621108485571382,0.6333333333333333,0.07453559924999298,0.5408,0.7258666666666667,0.6159730639730641,0.0902462228136161,0.5039355422825492,0.7280105856635789,12.0,0.0,12.0,12.0,0.7330952380952381,0.11738843789519444,0.5873616079569342,0.8788288682335421,0.625,0.15309310892394862,0.4349402725457074,0.8150597274542926,0.6701648351648352,0.13298712499184798,0.505065981868724,0.8352636884609463,8.0,0.0,8.0,8.0,0.625,0.6159730639730641,0.5333333333333334,0.5758427331182749
47,inceptiontime,inception_time,PPI,50,10,15.0,7.5,50.0,0.9,model=inceptiontime|resolved_model=inception_time|extra_input=PPI|cnn_epochs=50|cnn_patience=10|window_sec=15|hop_sec=7p5|overlap_pct=50|max_windows_fraction=0p9,5,5,5,0,0,True,0.6416666666666666,0.07191589833597649,0.5523856001742731,0.7309477331590601,0.08928106649239356,0.5694444444444444,0.7175925925925926,0.6204823782828898,0.0693063367078604,0.5344409910634628,0.7065237655023168,0.08604138721942703,0.5589225589225589,0.6983193277310923,0.6268518518518519,0.035464292596676966,0.5828241759318856,0.6708795277718181,0.04402767591996631,0.5851851851851851,0.6703703703703704,0.610461147340388,0.03273985073766435,0.5698157704724727,0.6511065242083034,0.040645376867915355,0.5847948347948349,0.6502230283124141,0.6044819111450439,0.037984852323554134,0.5573250486921911,0.6516387735978967,0.04715686245285277,0.5574005645454877,0.6435632353264471,0.5892246588763392,0.0355054354858827,0.5451459055018482,0.6333034122508303,0.0440787533744911,0.5526722918197042,0.6285411537875438,1.0871303065106104,0.4721389345116773,0.5009863719823322,1.6732742410388886,0.5861439345282782,0.2674850891724565,1.4298809220462485,0.7791358024691358,0.07627314422986142,0.6844453679596978,0.8738262369785739,0.09469043450943798,0.7052469135802468,0.9055555555555556,135.54593498315663,15.114801844713524,116.78143840115203,154.31043156516122,18.764496582004597,110.47015195153654,147.69031933136284,5215.0,0.0,5215.0,5215.0,0.0,5215.0,5215.0,18.0,0.0,18.0,18.0,0.0,18.0,18.0,0.5838383838383838,0.09771128467866831,0.4625332495592053,0.7051435181175624,0.7333333333333333,0.12668615834434865,0.5760569092251825,0.8906097574414841,0.6471359558316079,0.10217418690466876,0.5202902849032575,0.7739816267599583,9.0,0.0,9.0,9.0,0.5666666666666667,0.09128709291752767,0.45333694123389834,0.679996392099435,0.4166666666666667,0.10206207261596575,0.2899601816971383,0.543373151636195,0.477056277056277,0.09935041356582004,0.35371622172974243,0.6003963323828116,12.0,0.0,12.0,12.0,0.7073015873015873,0.07607133541986996,0.6128616913545605,0.8017414832486142,0.775,0.10458250331675945,0.6451644886789443,0.9048355113210558,0.7372549019607842,0.0803682413016439,0.6374805480062947,0.8370292559152738,8.0,0.0,8.0,8.0,0.4166666666666667,0.477056277056277,0.4166666666666667,0.477056277056277
48,inceptiontime,inception_time,HRV,50,20,15.0,10.5,30.000000000000004,0.9,model=inceptiontime|resolved_model=inception_time|extra_input=HRV|cnn_epochs=50|cnn_patience=20|window_sec=15|hop_sec=10p5|overlap_pct=30|max_windows_fraction=0p9,5,5,5,0,0,True,0.6407407407407408,0.05961266149192547,0.5667337114523834,0.7147477700290983,0.07400702928835742,0.5601851851851852,0.7222222222222223,0.6318979928254393,0.05467573116724299,0.5640199894518676,0.6997759961990111,0.06787800337357176,0.5644117647058824,0.7011528822055139,0.6125925925925926,0.04168518107178683,0.5608419017282353,0.6643432834569498,0.05175069086435728,0.5509259259259259,0.6527777777777778,0.6087064284316025,0.03783056034214923,0.561741114064358,0.655671742798847,0.046965314367244514,0.5571645589755826,0.6484995607342673,0.5915637987453641,0.039996274060746816,0.5419098267240043,0.6412177707667239,0.0496539720213598,0.5349417974322127,0.6312707904221662,0.5900093078941704,0.03525216062656196,0.54624498637799,0.6337736294103508,0.04376432151618038,0.5421402434188533,0.6269176896907792,0.982098577003174,0.2547350767305828,0.665853909971729,1.2983432440346192,0.31624466703144505,0.5429574184519946,1.1879728237346368,0.7443706910373576,0.05579360669426261,0.6751048843884685,0.8136364976862468,0.06926580664888912,0.6851851851851852,0.8273625140291806,195.57326684240252,21.042033667697975,169.45031975434375,221.69621393046128,26.122947088058762,168.1785688586533,217.93870069924745,3908.0,0.0,3908.0,3908.0,0.0,3908.0,3908.0,40.0,0.0,40.0,40.0,0.0,40.0,40.0,0.578525641025641,0.06700174666784253,0.49534532154452254,0.6617059605067594,0.7555555555555555,0.19876159799998128,0.5088,1.002311111111111,0.6465638963719459,0.09573695072400536,0.5277098284795203,0.7654179642643715,9.0,0.0,9.0,9.0,0.5735486735486736,0.10250863556223065,0.44628779633735943,0.7008095507599876,0.4666666666666667,0.07453559924999299,0.3741333333333333,0.5592,0.5091494744767056,0.061485181726274,0.4328177769658893,0.5854811719875218,12.0,0.0,12.0,12.0,0.8055555555555556,0.18814190533533426,0.5719839761284999,1.0391271349826112,0.7,0.11180339887498948,0.5611999999999999,0.8388,0.7399806076276665,0.10954913007282574,0.6039792033133861,0.8759820119419469,8.0,0.0,8.0,8.0,0.4666666666666667,0.5091494744767056,0.4666666666666667,0.5091494744767056
49,cnn,cnn1d,0,50,10,10.0,5.0,50.0,0.9,model=cnn|resolved_model=cnn1d|extra_input=0|cnn_epochs=50|cnn_patience=10|window_sec=10|hop_sec=5|overlap_pct=50|max_windows_fraction=0p9,5,5,5,0,0,True,0.6407407407407407,0.03797989685554385,0.5935900303276895,0.6878914511537919,0.04715071041305122,0.5787037037037037,0.6666666666666666,0.6410078348238262,0.04173600412297708,0.589194048923216,0.6928216207244363,0.05181378590061011,0.5755555555555555,0.6801587301587301,0.6233333333333333,0.040790163625066156,0.5726937752507596,0.673972891415907,0.05063955808257367,0.562962962962963,0.6611111111111111,0.6268650893312733,0.040920821262296354,0.5760633243727903,0.6776668542897563,0.05080176495848295,0.56557532677431,0.6804183880910223,0.5822612664995127,0.03208147882557129,0.542433235278671,0.6220892977203544,0.03982803122084166,0.5440261804799298,0.6129803706821854,0.5842614242914063,0.03297037107496509,0.5433298645065197,0.6251929840762929,0.040931559784886586,0.5455628773128135,0.6265859542721318,1.2595116667128454,0.2987015978694211,0.888684105105054,1.6303392283206368,0.3708275616077914,0.8123945453279018,1.5805380372878182,0.6981013913290198,0.0386196594562296,0.6501564380765852,0.7460463445814545,0.047944953252434586,0.6373490957131793,0.7359335439492729,55.70107006598264,8.398379648914691,45.274776169741116,66.12736396222417,10.426293896241521,43.10100502241403,66.21620362251997,7825.0,0.0,7825.0,7825.0,0.0,7825.0,7825.0,0.0,0.0,0.0,0.0,0.0,0.0,0.0,0.5853979353979354,0.0741793372274594,0.49330688887542573,0.677488981920445,0.6888888888888889,0.09296222517045284,0.5734795454923949,0.8042982322853829,0.6256060606060606,0.02789895515617465,0.5909704858861288,0.6602416353259924,9.0,0.0,9.0,9.0,0.577028527028527,0.037216482894267607,0.5308255682839526,0.6232314857731015,0.5833333333333334,0.1767766952966369,0.3638712637176479,0.8027954029490189,0.5679496567505721,0.09121934381168982,0.4547040394574928,0.6811952740436513,12.0,0.0,12.0,12.0,0.8769841269841269,0.11898146309972182,0.729272811904101,1.0246954420641528,0.65,0.2053959590644373,0.3950081177762712,0.9049918822237288,0.7294677871148458,0.1472436347060853,0.546669976825945,0.9122655974037467,8.0,0.0,8.0,8.0,0.5833333333333334,0.5679496567505721,0.475,0.5458771929824562
50,inceptiontime,inception_time,HRV,50,20,10.0,5.0,50.0,0.9,model=inceptiontime|resolved_model=inception_time|extra_input=HRV|cnn_epochs=50|cnn_patience=20|window_sec=10|hop_sec=5|overlap_pct=50|max_windows_fraction=0p9,5,5,5,0,0,True,0.6407407407407406,0.08689655723794792,0.5328617114268538,0.7486197700546274,0.1078790293138868,0.5462962962962963,0.7777777777777778,0.6448236397893148,0.07614240518910148,0.5502955132154144,0.7393517663632152,0.09452812657390045,0.5683760683760682,0.7616161616161617,0.6040740740740741,0.05848232002776487,0.5314703240849526,0.6766778240631955,0.07260374998912149,0.5499999999999999,0.7000000000000001,0.6022963937632172,0.05276398641101554,0.5367917544808487,0.6678010330455857,0.06550463928236855,0.5460447770896957,0.684663728085801,0.5901547404040594,0.05182505420758478,0.5258157525343272,0.6544937282737915,0.06433898786973209,0.5441856888823408,0.6684118813351319,0.5890227765750385,0.04888511659415963,0.5283336181814181,0.649711934968659,0.06068915839362039,0.5407296240294707,0.6600967664581208,1.2277765976112769,0.371667635520119,0.7663642583685862,1.6891889368539674,0.46141233924269065,0.6011732875259284,1.5156040964166728,0.7554569901704901,0.03970659067473614,0.7061626499168839,0.8047513304240962,0.04929434025360613,0.7144036812715564,0.8075552866841433,268.33744366392494,41.62860026857878,216.6569958830902,320.0178914447597,51.68044778083476,228.03702280391008,332.53932512085885,7825.0,0.0,7825.0,7825.0,0.0,7825.0,7825.0,40.0,0.0,40.0,40.0,0.0,40.0,40.0,0.5655322455322456,0.11097009650813287,0.4277667612060403,0.7032977298584508,0.6888888888888889,0.21372648957412604,0.42355494509655195,0.9542228326812259,0.6188410419989367,0.15085020902222057,0.4315657961390538,0.8061162878588197,9.0,0.0,9.0,9.0,0.5955988455988456,0.10674431880813519,0.4630795161361029,0.7281181750615883,0.5833333333333334,0.058925565098878946,0.5101793101281049,0.6564873565385618,0.5851170568561873,0.05865821464907885,0.5122949398613751,0.6579391738509995,12.0,0.0,12.0,12.0,0.8642857142857142,0.13458174058154837,0.6972072016404458,1.0313642269309826,0.65,0.10458250331675945,0.5201644886789443,0.7798355113210558,0.7305128205128205,0.06095071892986223,0.654844639826076,0.806181001199565,8.0,0.0,8.0,8.0,0.5833333333333334,0.5851170568561873,0.5305555555555556,0.5496469713861017
